Data from USB2G147421__105__13-40-23-745.txt Node

Date: Tue Jun 28 13:40:23 UTC 2022
User: yes
Spectrometer: USB2G14742
Trigger mode: 4
Integration Time (sec): 2.000000E0
Scans to average: 1
Electric dark correction enabled: true
Nonlinearity correction enabled: false
Boxcar width: 0
XAxis mode: Wavelengths
Number of Pixels in Spectrum: 2048
>>>>>Begin Spectral Data<<<<<
339.471	-153.39
339.856	-2.39
340.241	-3.39
340.625	-5.39
341.01	-2.39
341.395	37.61
341.779	11.61
342.163	10.61
342.548	6.61
342.932	22.61
343.317	8.61
343.701	7.61
344.085	13.61
344.469	3.61
344.853	4.61
345.238	5.61
345.622	10.61
346.006	23.61
346.39	7.61
346.774	15.61
347.157	11.61
347.541	12.61
347.925	9.61
348.309	11.61
348.693	31.61
349.076	7.61
349.46	23.61
349.843	15.61
350.227	12.61
350.61	69.61
350.994	15.61
351.377	5.61
351.761	31.61
352.144	28.61
352.527	5.61
352.91	9.61
353.294	14.61
353.677	12.61
354.06	13.61
354.443	94.61
354.826	9.61
355.209	4.61
355.592	1.61
355.975	8.61
356.358	23.61
356.74	15.61
357.123	11.61
357.506	7.61
357.889	6.61
358.271	21.61
358.654	13.61
359.036	12.61
359.419	7.61
359.801	10.61
360.184	9.61
360.566	17.61
360.948	24.61
361.331	12.61
361.713	6.61
362.095	18.61
362.477	6.61
362.859	11.61
363.241	12.61
363.623	7.61
364.005	17.61
364.387	19.61
364.769	14.61
365.151	14.61
365.533	34.61
365.915	23.61
366.296	13.61
366.678	59.61
367.06	11.61
367.441	11.61
367.823	20.61
368.204	11.61
368.586	6.61
368.967	19.61
369.348	19.61
369.73	17.61
370.111	10.61
370.492	3.61
370.873	14.61
371.255	45.61
371.636	10.61
372.017	11.61
372.398	19.61
372.779	17.61
373.16	10.61
373.54	10.61
373.921	11.61
374.302	5.61
374.683	18.61
375.064	11.61
375.444	7.61
375.825	12.61
376.205	9.61
376.586	24.61
376.966	19.61
377.347	20.61
377.727	13.61
378.108	8.61
378.488	9.61
378.868	7.61
379.248	12.61
379.629	12.61
380.009	40.61
380.389	11.61
380.769	18.61
381.149	7.61
381.529	27.61
381.909	25.61
382.289	7.61
382.668	90.61
383.048	15.61
383.428	7.61
383.808	7.61
384.187	8.61
384.567	14.61
384.946	7.61
385.326	16.61
385.705	24.61
386.085	8.61
386.464	19.61
386.844	17.61
387.223	12.61
387.602	10.61
387.981	16.61
388.361	12.61
388.74	16.61
389.119	7.61
389.498	11.61
389.877	15.61
390.256	5.61
390.635	23.61
391.013	16.61
391.392	6.61
391.771	46.61
392.15	18.61
392.528	12.61
392.907	7.61
393.286	19.61
393.664	20.61
394.043	11.61
394.421	16.61
394.8	14.61
395.178	5.61
395.556	17.61
395.935	19.61
396.313	12.61
396.691	20.61
397.069	8.61
397.447	10.61
397.825	15.61
398.203	10.61
398.581	23.61
398.959	12.61
399.337	18.61
399.715	73.61
400.093	14.61
400.471	9.61
400.848	6.61
401.226	16.61
401.604	10.61
401.981	13.61
402.359	19.61
402.736	12.61
403.114	41.61
403.491	17.61
403.868	21.61
404.246	53.61
404.623	21.61
405	4.61
405.377	8.61
405.755	15.61
406.132	3.61
406.509	4.61
406.886	17.61
407.263	17.61
407.64	4.61
408.017	13.61
408.393	19.61
408.77	16.61
409.147	9.61
409.524	12.61
409.9	14.61
410.277	18.61
410.653	16.61
411.03	21.61
411.406	9.61
411.783	39.61
412.159	18.61
412.536	21.61
412.912	7.61
413.288	23.61
413.664	8.61
414.04	8.61
414.417	20.61
414.793	17.61
415.169	18.61
415.545	27.61
415.921	19.61
416.297	33.61
416.672	10.61
417.048	15.61
417.424	16.61
417.8	40.61
418.175	14.61
418.551	12.61
418.927	8.61
419.302	76.61
419.678	24.61
420.053	8.61
420.429	24.61
420.804	14.61
421.179	4.61
421.554	14.61
421.93	17.61
422.305	69.61
422.68	20.61
423.055	19.61
423.43	27.61
423.805	22.61
424.18	18.61
424.555	25.61
424.93	25.61
425.305	15.61
425.68	24.61
426.054	25.61
426.429	27.61
426.804	37.61
427.178	38.61
427.553	27.61
427.927	83.61
428.302	30.61
428.676	32.61
429.051	39.61
429.425	29.61
429.799	52.61
430.174	43.61
430.548	33.61
430.922	51.61
431.296	42.61
431.67	57.61
432.044	57.61
432.418	48.61
432.792	55.61
433.166	55.61
433.54	65.61
433.914	67.61
434.287	65.61
434.661	66.61
435.035	67.61
435.408	71.61
435.782	72.61
436.156	85.61
436.529	124.61
436.903	78.61
437.276	84.61
437.649	100.61
438.023	130.61
438.396	90.61
438.769	95.61
439.142	87.61
439.515	105.61
439.889	99.61
440.262	111.61
440.635	114.61
441.008	107.61
441.38	107.61
441.753	110.61
442.126	100.61
442.499	100.61
442.872	165.61
443.244	144.61
443.617	114.61
443.99	116.61
444.362	117.61
444.735	109.61
445.107	122.61
445.48	147.61
445.852	119.61
446.224	138.61
446.597	138.61
446.969	150.61
447.341	167.61
447.713	155.61
448.085	167.61
448.457	167.61
448.829	179.61
449.201	187.61
449.573	171.61
449.945	199.61
450.317	177.61
450.689	209.61
451.061	199.61
451.432	214.61
451.804	217.61
452.176	236.61
452.547	216.61
452.919	231.61
453.29	223.61
453.662	220.61
454.033	239.61
454.404	258.61
454.776	240.61
455.147	235.61
455.518	217.61
455.889	223.61
456.26	219.61
456.631	223.61
457.002	212.61
457.373	221.61
457.744	216.61
458.115	195.61
458.486	200.61
458.857	167.61
459.228	200.61
459.598	178.61
459.969	166.61
460.34	164.61
460.71	159.61
461.081	151.61
461.451	168.61
461.822	156.61
462.192	126.61
462.563	122.61
462.933	132.61
463.303	127.61
463.673	130.61
464.044	128.61
464.414	119.61
464.784	117.61
465.154	126.61
465.524	109.61
465.894	123.61
466.264	115.61
466.634	110.61
467.003	107.61
467.373	107.61
467.743	126.61
468.113	118.61
468.482	110.61
468.852	120.61
469.221	115.61
469.591	110.61
469.96	114.61
470.33	94.61
470.699	152.61
471.068	90.61
471.438	99.61
471.807	110.61
472.176	103.61
472.545	105.61
472.914	91.61
473.283	93.61
473.652	92.61
474.021	110.61
474.39	95.61
474.759	96.61
475.128	78.61
475.497	81.61
475.865	83.61
476.234	80.61
476.603	75.61
476.971	74.61
477.34	75.61
477.708	94.61
478.077	80.61
478.445	81.61
478.814	76.61
479.182	85.61
479.55	81.61
479.919	78.61
480.287	76.61
480.655	89.61
481.023	65.61
481.391	77.61
481.759	77.61
482.127	90.61
482.495	84.61
482.863	90.61
483.231	74.61
483.598	88.61
483.966	93.61
484.334	90.61
484.701	94.61
485.069	93.61
485.437	123.61
485.804	92.61
486.172	87.61
486.539	101.61
486.906	97.61
487.274	105.61
487.641	100.61
488.008	110.61
488.375	116.61
488.743	103.61
489.11	103.61
489.477	96.61
489.844	111.61
490.211	110.61
490.578	117.61
490.945	136.61
491.311	125.61
491.678	128.61
492.045	141.61
492.412	119.61
492.778	123.61
493.145	142.61
493.511	127.61
493.878	140.61
494.244	138.61
494.611	139.61
494.977	145.61
495.344	144.61
495.71	194.61
496.076	138.61
496.442	165.61
496.808	156.61
497.175	179.61
497.541	163.61
497.907	177.61
498.273	197.61
498.638	206.61
499.004	188.61
499.37	190.61
499.736	220.61
500.102	192.61
500.467	207.61
500.833	210.61
501.199	217.61
501.564	217.61
501.93	209.61
502.295	235.61
502.661	225.61
503.026	230.61
503.391	227.61
503.757	240.61
504.122	233.61
504.487	243.61
504.852	262.61
505.217	250.61
505.582	250.61
505.947	265.61
506.312	268.61
506.677	266.61
507.042	272.61
507.407	293.61
507.772	304.61
508.136	309.61
508.501	303.61
508.866	295.61
509.23	321.61
509.595	302.61
509.959	312.61
510.324	299.61
510.688	325.61
511.053	328.61
511.417	377.61
511.781	336.61
512.146	324.61
512.51	348.61
512.874	387.61
513.238	347.61
513.602	340.61
513.966	352.61
514.33	357.61
514.694	354.61
515.058	351.61
515.422	390.61
515.785	389.61
516.149	373.61
516.513	387.61
516.876	376.61
517.24	371.61
517.604	386.61
517.967	405.61
518.331	385.61
518.694	390.61
519.057	404.61
519.421	408.61
519.784	405.61
520.147	424.61
520.51	436.61
520.873	407.61
521.237	434.61
521.6	420.61
521.963	429.61
522.326	425.61
522.688	405.61
523.051	423.61
523.414	438.61
523.777	515.61
524.14	452.61
524.502	446.61
524.865	437.61
525.228	455.61
525.59	464.61
525.953	468.61
526.315	468.61
526.677	483.61
527.04	511.61
527.402	473.61
527.764	468.61
528.127	470.61
528.489	471.61
528.851	487.61
529.213	476.61
529.575	478.61
529.937	489.61
530.299	482.61
530.661	503.61
531.023	506.61
531.384	490.61
531.746	507.61
532.108	509.61
532.47	503.61
532.831	512.61
533.193	504.61
533.554	518.61
533.916	513.61
534.277	510.61
534.639	526.61
535	521.61
535.361	522.61
535.723	529.61
536.084	522.61
536.445	550.61
536.806	615.61
537.167	580.61
537.528	543.61
537.889	575.61
538.25	544.61
538.611	551.61
538.972	542.61
539.333	537.61
539.693	569.61
540.054	599.61
540.415	576.61
540.775	553.61
541.136	550.61
541.496	545.61
541.857	569.61
542.217	563.61
542.578	582.61
542.938	587.61
543.298	582.61
543.658	583.61
544.019	596.61
544.379	581.61
544.739	594.61
545.099	590.61
545.459	595.61
545.819	594.61
546.179	579.61
546.539	636.61
546.899	587.61
547.258	609.61
547.618	597.61
547.978	615.61
548.337	609.61
548.697	602.61
549.056	630.61
549.416	605.61
549.775	616.61
550.135	623.61
550.494	606.61
550.854	630.61
551.213	630.61
551.572	610.61
551.931	629.61
552.29	626.61
552.649	621.61
553.008	629.61
553.367	658.61
553.726	648.61
554.085	632.61
554.444	728.61
554.803	630.61
555.162	639.61
555.52	623.61
555.879	641.61
556.238	646.61
556.596	646.61
556.955	661.61
557.313	644.61
557.672	643.61
558.03	647.61
558.388	646.61
558.747	680.61
559.105	654.61
559.463	643.61
559.821	650.61
560.179	659.61
560.537	679.61
560.896	682.61
561.253	664.61
561.611	663.61
561.969	665.61
562.327	681.61
562.685	671.61
563.043	662.61
563.4	668.61
563.758	665.61
564.116	694.61
564.473	689.61
564.831	676.61
565.188	703.61
565.546	716.61
565.903	711.61
566.26	690.61
566.617	703.61
566.975	721.61
567.332	702.61
567.689	698.61
568.046	696.61
568.403	724.61
568.76	704.61
569.117	711.61
569.474	694.61
569.831	705.61
570.188	716.61
570.544	716.61
570.901	708.61
571.258	730.61
571.614	722.61
571.971	729.61
572.328	707.61
572.684	727.61
573.04	752.61
573.397	730.61
573.753	745.61
574.109	732.61
574.466	756.61
574.822	754.61
575.178	759.61
575.534	746.61
575.89	756.61
576.246	742.61
576.602	752.61
576.958	744.61
577.314	735.61
577.67	732.61
578.026	748.61
578.381	760.61
578.737	748.61
579.093	750.61
579.448	759.61
579.804	780.61
580.159	773.61
580.515	737.61
580.87	755.61
581.226	753.61
581.581	781.61
581.936	747.61
582.291	760.61
582.647	754.61
583.002	777.61
583.357	767.61
583.712	754.61
584.067	750.61
584.422	754.61
584.777	760.61
585.131	757.61
585.486	753.61
585.841	761.61
586.196	771.61
586.55	757.61
586.905	752.61
587.26	738.61
587.614	730.61
587.969	768.61
588.323	765.61
588.677	772.61
589.032	748.61
589.386	752.61
589.74	769.61
590.094	762.61
590.449	783.61
590.803	779.61
591.157	753.61
591.511	772.61
591.865	751.61
592.219	741.61
592.573	743.61
592.926	754.61
593.28	719.61
593.634	767.61
593.988	716.61
594.341	717.61
594.695	733.61
595.048	725.61
595.402	718.61
595.755	700.61
596.109	729.61
596.462	721.61
596.815	714.61
597.169	739.61
597.522	717.61
597.875	751.61
598.228	732.61
598.581	705.61
598.934	751.61
599.287	696.61
599.64	711.61
599.993	704.61
600.346	694.61
600.698	698.61
601.051	685.61
601.404	700.61
601.757	691.61
602.109	684.61
602.462	690.61
602.814	669.61
603.167	672.61
603.519	672.61
603.871	690.61
604.224	671.61
604.576	662.61
604.928	711.61
605.28	676.61
605.633	665.61
605.985	664.61
606.337	659.61
606.689	665.61
607.041	680.61
607.392	637.61
607.744	663.61
608.096	639.61
608.448	636.61
608.8	643.61
609.151	646.61
609.503	630.61
609.854	630.61
610.206	677.61
610.557	649.61
610.909	623.61
611.26	638.61
611.612	630.61
611.963	606.61
612.314	630.61
612.665	603.61
613.016	625.61
613.367	620.61
613.719	637.61
614.07	603.61
614.42	596.61
614.771	595.61
615.122	597.61
615.473	587.61
615.824	588.61
616.174	602.61
616.525	568.61
616.876	581.61
617.226	586.61
617.577	578.61
617.927	571.61
618.278	569.61
618.628	635.61
618.979	581.61
619.329	556.61
619.679	582.61
620.029	567.61
620.379	554.61
620.729	570.61
621.08	553.61
621.43	563.61
621.779	571.61
622.129	534.61
622.479	542.61
622.829	538.61
623.179	550.61
623.529	511.61
623.878	531.61
624.228	513.61
624.577	525.61
624.927	524.61
625.276	515.61
625.626	533.61
625.975	522.61
626.325	509.61
626.674	552.61
627.023	505.61
627.372	501.61
627.722	522.61
628.071	508.61
628.42	498.61
628.769	525.61
629.118	482.61
629.467	484.61
629.815	483.61
630.164	473.61
630.513	478.61
630.862	517.61
631.21	475.61
631.559	471.61
631.908	451.61
632.256	452.61
632.605	450.61
632.953	461.61
633.302	436.61
633.65	460.61
633.998	514.61
634.346	453.61
634.695	440.61
635.043	426.61
635.391	448.61
635.739	419.61
636.087	432.61
636.435	439.61
636.783	406.61
637.131	399.61
637.479	414.61
637.826	404.61
638.174	407.61
638.522	395.61
638.869	441.61
639.217	391.61
639.564	378.61
639.912	383.61
640.259	376.61
640.607	388.61
640.954	383.61
641.301	385.61
641.649	369.61
641.996	366.61
642.343	387.61
642.69	357.61
643.037	362.61
643.384	374.61
643.731	345.61
644.078	380.61
644.425	339.61
644.772	331.61
645.119	333.61
645.465	327.61
645.812	325.61
646.159	338.61
646.505	323.61
646.852	341.61
647.198	312.61
647.545	325.61
647.891	324.61
648.237	322.61
648.584	317.61
648.93	302.61
649.276	303.61
649.622	300.61
649.969	309.61
650.315	295.61
650.661	303.61
651.007	292.61
651.352	302.61
651.698	269.61
652.044	278.61
652.39	291.61
652.736	286.61
653.081	275.61
653.427	270.61
653.773	277.61
654.118	256.61
654.464	253.61
654.809	269.61
655.154	254.61
655.5	256.61
655.845	243.61
656.19	261.61
656.536	247.61
656.881	241.61
657.226	236.61
657.571	304.61
657.916	231.61
658.261	228.61
658.606	230.61
658.951	226.61
659.295	214.61
659.64	224.61
659.985	228.61
660.33	222.61
660.674	216.61
661.019	227.61
661.363	215.61
661.708	224.61
662.052	202.61
662.397	207.61
662.741	212.61
663.085	206.61
663.429	212.61
663.774	246.61
664.118	187.61
664.462	198.61
664.806	182.61
665.15	203.61
665.494	181.61
665.838	179.61
666.182	186.61
666.526	189.61
666.869	182.61
667.213	189.61
667.557	185.61
667.9	181.61
668.244	177.61
668.587	186.61
668.931	165.61
669.274	171.61
669.618	176.61
669.961	166.61
670.304	166.61
670.648	163.61
670.991	158.61
671.334	146.61
671.677	151.61
672.02	151.61
672.363	148.61
672.706	156.61
673.049	162.61
673.392	150.61
673.735	156.61
674.077	150.61
674.42	145.61
674.763	145.61
675.105	146.61
675.448	143.61
675.79	137.61
676.133	148.61
676.475	142.61
676.818	132.61
677.16	128.61
677.502	150.61
677.844	154.61
678.187	124.61
678.529	158.61
678.871	143.61
679.213	137.61
679.555	132.61
679.897	128.61
680.239	124.61
680.58	133.61
680.922	123.61
681.264	131.61
681.606	120.61
681.947	118.61
682.289	121.61
682.631	153.61
682.972	111.61
683.313	114.61
683.655	117.61
683.996	111.61
684.338	110.61
684.679	108.61
685.02	107.61
685.361	118.61
685.702	117.61
686.043	116.61
686.384	110.61
686.725	95.61
687.066	115.61
687.407	97.61
687.748	98.61
688.089	120.61
688.43	102.61
688.77	129.61
689.111	102.61
689.451	99.61
689.792	104.61
690.132	97.61
690.473	92.61
690.813	88.61
691.154	104.61
691.494	93.61
691.834	92.61
692.174	84.61
692.515	84.61
692.855	84.61
693.195	94.61
693.535	85.61
693.875	80.61
694.215	84.61
694.554	92.61
694.894	81.61
695.234	89.61
695.574	86.61
695.913	84.61
696.253	78.61
696.593	88.61
696.932	81.61
697.272	77.61
697.611	71.61
697.95	85.61
698.29	74.61
698.629	73.61
698.968	72.61
699.307	68.61
699.647	69.61
699.986	85.61
700.325	68.61
700.664	63.61
701.003	69.61
701.341	61.61
701.68	58.61
702.019	66.61
702.358	82.61
702.697	70.61
703.035	71.61
703.374	66.61
703.712	73.61
704.051	49.61
704.389	65.61
704.728	52.61
705.066	66.61
705.404	66.61
705.743	59.61
706.081	58.61
706.419	51.61
706.757	55.61
707.095	67.61
707.433	56.61
707.771	59.61
708.109	39.61
708.447	58.61
708.785	58.61
709.123	61.61
709.46	52.61
709.798	43.61
710.136	59.61
710.473	60.61
710.811	62.61
711.148	66.61
711.486	51.61
711.823	44.61
712.16	43.61
712.498	50.61
712.835	61.61
713.172	52.61
713.509	61.61
713.846	106.61
714.183	58.61
714.52	44.61
714.857	42.61
715.194	44.61
715.531	46.61
715.868	50.61
716.205	42.61
716.541	46.61
716.878	60.61
717.215	43.61
717.551	45.61
717.888	40.61
718.224	99.61
718.561	46.61
718.897	40.61
719.233	35.61
719.57	38.61
719.906	39.61
720.242	30.61
720.578	40.61
720.914	37.61
721.25	43.61
721.586	28.61
721.922	33.61
722.258	48.61
722.594	30.61
722.929	38.61
723.265	37.61
723.601	42.61
723.937	51.61
724.272	27.61
724.608	31.61
724.943	29.61
725.279	24.61
725.614	27.61
725.949	36.61
726.285	35.61
726.62	60.61
726.955	28.61
727.29	32.61
727.625	22.61
727.96	38.61
728.295	44.61
728.63	29.61
728.965	26.61
729.3	36.61
729.635	75.61
729.97	32.61
730.304	28.61
730.639	30.61
730.974	23.61
731.308	40.61
731.643	18.61
731.977	36.61
732.311	31.61
732.646	26.61
732.98	32.61
733.314	20.61
733.649	34.61
733.983	33.61
734.317	55.61
734.651	27.61
734.985	33.61
735.319	21.61
735.653	29.61
735.987	40.61
736.321	43.61
736.654	22.61
736.988	40.61
737.322	43.61
737.655	34.61
737.989	33.61
738.322	30.61
738.656	19.61
738.989	27.61
739.323	20.61
739.656	27.61
739.989	39.61
740.323	22.61
740.656	20.61
740.989	21.61
741.322	25.61
741.655	27.61
741.988	39.61
742.321	36.61
742.654	22.61
742.987	16.61
743.319	30.61
743.652	33.61
743.985	29.61
744.317	20.61
744.65	17.61
744.983	30.61
745.315	19.61
745.648	24.61
745.98	21.61
746.312	20.61
746.645	19.61
746.977	32.61
747.309	29.61
747.641	23.61
747.973	37.61
748.305	14.61
748.637	16.61
748.969	20.61
749.301	31.61
749.633	18.61
749.965	15.61
750.297	24.61
750.628	37.61
750.96	24.61
751.292	33.61
751.623	22.61
751.955	20.61
752.286	25.61
752.618	11.61
752.949	7.61
753.28	29.61
753.611	12.61
753.943	17.61
754.274	25.61
754.605	17.61
754.936	22.61
755.267	11.61
755.598	28.61
755.929	12.61
756.26	18.61
756.591	140.61
756.921	19.61
757.252	19.61
757.583	18.61
757.913	18.61
758.244	19.61
758.574	25.61
758.905	14.61
759.235	35.61
759.566	12.61
759.896	31.61
760.226	26.61
760.557	11.61
760.887	4.61
761.217	16.61
761.547	30.61
761.877	20.61
762.207	40.61
762.537	22.61
762.867	18.61
763.197	49.61
763.526	11.61
763.856	33.61
764.186	20.61
764.515	10.61
764.845	10.61
765.175	16.61
765.504	18.61
765.833	8.61
766.163	16.61
766.492	12.61
766.821	18.61
767.151	21.61
767.48	15.61
767.809	20.61
768.138	18.61
768.467	9.61
768.796	8.61
769.125	13.61
769.454	10.61
769.783	22.61
770.112	19.61
770.44	23.61
770.769	11.61
771.098	25.61
771.426	21.61
771.755	11.61
772.083	16.61
772.412	12.61
772.74	14.61
773.069	81.61
773.397	23.61
773.725	8.61
774.053	47.61
774.381	26.61
774.71	26.61
775.038	11.61
775.366	15.61
775.693	14.61
776.021	19.61
776.349	7.61
776.677	17.61
777.005	15.61
777.332	17.61
777.66	9.61
777.988	22.61
778.315	25.61
778.643	14.61
778.97	11.61
779.298	8.61
779.625	12.61
779.952	16.61
780.28	24.61
780.607	13.61
780.934	21.61
781.261	18.61
781.588	11.61
781.915	28.61
782.242	25.61
782.569	38.61
782.896	22.61
783.223	16.61
783.549	21.61
783.876	15.61
784.203	5.61
784.529	41.61
784.856	20.61
785.182	23.61
785.509	28.61
785.835	19.61
786.162	16.61
786.488	11.61
786.814	14.61
787.14	20.61
787.466	23.61
787.793	24.61
788.119	8.61
788.445	12.61
788.771	29.61
789.097	18.61
789.422	16.61
789.748	10.61
790.074	10.61
790.4	32.61
790.725	14.61
791.051	79.61
791.376	15.61
791.702	14.61
792.027	15.61
792.353	14.61
792.678	15.61
793.004	34.61
793.329	21.61
793.654	13.61
793.979	17.61
794.304	11.61
794.629	19.61
794.954	9.61
795.279	16.61
795.604	23.61
795.929	15.61
796.254	9.61
796.579	-0.39
796.903	75.61
797.228	12.61
797.553	39.61
797.877	11.61
798.202	21.61
798.526	14.61
798.851	9.61
799.175	22.61
799.499	16.61
799.823	10.61
800.148	8.61
800.472	8.61
800.796	8.61
801.12	23.61
801.444	11.61
801.768	9.61
802.092	17.61
802.416	10.61
802.74	26.61
803.063	15.61
803.387	23.61
803.711	89.61
804.034	17.61
804.358	16.61
804.681	19.61
805.005	19.61
805.328	16.61
805.652	5.61
805.975	5.61
806.298	24.61
806.621	12.61
806.944	14.61
807.268	27.61
807.591	29.61
807.914	13.61
808.237	18.61
808.56	20.61
808.882	24.61
809.205	25.61
809.528	8.61
809.851	9.61
810.173	12.61
810.496	90.61
810.818	65.61
811.141	7.61
811.463	26.61
811.786	62.61
812.108	7.61
812.43	15.61
812.753	14.61
813.075	25.61
813.397	20.61
813.719	20.61
814.041	15.61
814.363	12.61
814.685	12.61
815.007	10.61
815.329	13.61
815.651	16.61
815.972	13.61
816.294	27.61
816.616	10.61
816.937	9.61
817.259	14.61
817.58	22.61
817.902	8.61
818.223	18.61
818.545	20.61
818.866	31.61
819.187	15.61
819.508	30.61
819.83	25.61
820.151	33.61
820.472	8.61
820.793	17.61
821.114	14.61
821.435	7.61
821.755	8.61
822.076	12.61
822.397	14.61
822.718	49.61
823.038	16.61
823.359	36.61
823.679	14.61
824	33.61
824.32	9.61
824.641	20.61
824.961	13.61
825.281	24.61
825.602	12.61
825.922	5.61
826.242	15.61
826.562	26.61
826.882	18.61
827.202	24.61
827.522	49.61
827.842	14.61
828.162	4.61
828.481	8.61
828.801	11.61
829.121	24.61
829.441	32.61
829.76	16.61
830.08	12.61
830.399	4.61
830.719	17.61
831.038	7.61
831.357	1.61
831.677	13.61
831.996	24.61
832.315	21.61
832.634	19.61
832.953	10.61
833.272	8.61
833.591	14.61
833.91	12.61
834.229	4.61
834.548	16.61
834.867	15.61
835.185	20.61
835.504	35.61
835.823	75.61
836.141	13.61
836.46	18.61
836.778	18.61
837.097	7.61
837.415	8.61
837.733	17.61
838.051	8.61
838.37	21.61
838.688	16.61
839.006	9.61
839.324	9.61
839.642	20.61
839.96	17.61
840.278	27.61
840.596	15.61
840.914	20.61
841.231	27.61
841.549	27.61
841.867	8.61
842.184	14.61
842.502	34.61
842.819	14.61
843.137	23.61
843.454	20.61
843.772	16.61
844.089	24.61
844.406	60.61
844.723	14.61
845.041	11.61
845.358	13.61
845.675	9.61
845.992	3.61
846.309	12.61
846.626	20.61
846.942	18.61
847.259	8.61
847.576	7.61
847.893	19.61
848.209	14.61
848.526	12.61
848.842	52.61
849.159	15.61
849.475	12.61
849.792	10.61
850.108	24.61
850.424	10.61
850.741	33.61
851.057	14.61
851.373	15.61
851.689	23.61
852.005	16.61
852.321	12.61
852.637	22.61
852.953	16.61
853.269	16.61
853.584	6.61
853.9	3.61
854.216	8.61
854.531	6.61
854.847	11.61
855.163	11.61
855.478	12.61
855.793	8.61
856.109	12.61
856.424	8.61
856.739	7.61
857.055	15.61
857.37	19.61
857.685	17.61
858	20.61
858.315	41.61
858.63	12.61
858.945	15.61
859.26	21.61
859.574	27.61
859.889	16.61
860.204	6.61
860.519	22.61
860.833	16.61
861.148	9.61
861.462	23.61
861.777	4.61
862.091	29.61
862.405	4.61
862.72	15.61
863.034	20.61
863.348	28.61
863.662	8.61
863.976	30.61
864.291	52.61
864.605	15.61
864.918	16.61
865.232	10.61
865.546	23.61
865.86	33.61
866.174	7.61
866.487	22.61
866.801	16.61
867.115	10.61
867.428	12.61
867.742	16.61
868.055	9.61
868.368	1.61
868.682	8.61
868.995	34.61
869.308	13.61
869.621	18.61
869.935	11.61
870.248	20.61
870.561	14.61
870.874	17.61
871.187	23.61
871.499	22.61
871.812	5.61
872.125	12.61
872.438	32.61
872.75	10.61
873.063	14.61
873.376	7.61
873.688	13.61
874.001	18.61
874.313	19.61
874.625	75.61
874.938	10.61
875.25	11.61
875.562	15.61
875.874	10.61
876.186	1.61
876.498	40.61
876.81	29.61
877.122	39.61
877.434	30.61
877.746	29.61
878.058	21.61
878.37	14.61
878.681	6.61
878.993	3.61
879.304	24.61
879.616	9.61
879.927	10.61
880.239	32.61
880.55	15.61
880.862	5.61
881.173	10.61
881.484	8.61
881.795	14.61
882.106	68.61
882.417	27.61
882.729	7.61
883.039	22.61
883.35	17.61
883.661	22.61
883.972	13.61
884.283	13.61
884.594	26.61
884.904	32.61
885.215	74.61
885.525	31.61
885.836	7.61
886.146	25.61
886.457	17.61
886.767	30.61
887.077	9.61
887.388	16.61
887.698	5.61
888.008	6.61
888.318	3.61
888.628	11.61
888.938	40.61
889.248	24.61
889.558	18.61
889.868	4.61
890.178	11.61
890.487	6.61
890.797	49.61
891.107	27.61
891.416	9.61
891.726	10.61
892.035	14.61
892.345	10.61
892.654	6.61
892.963	30.61
893.273	18.61
893.582	23.61
893.891	14.61
894.2	19.61
894.509	14.61
894.818	5.61
895.127	26.61
895.436	21.61
895.745	5.61
896.054	12.61
896.362	21.61
896.671	8.61
896.98	29.61
897.288	10.61
897.597	11.61
897.905	4.61
898.214	19.61
898.522	18.61
898.831	6.61
899.139	13.61
899.447	12.61
899.755	17.61
900.063	10.61
900.372	133.61
900.68	4.61
900.988	1.61
901.296	21.61
901.603	19.61
901.911	2.61
902.219	4.61
902.527	14.61
902.834	8.61
903.142	13.61
903.45	12.61
903.757	6.61
904.065	25.61
904.372	24.61
904.679	10.61
904.987	1.61
905.294	20.61
905.601	21.61
905.908	5.61
906.215	22.61
906.522	79.61
906.829	17.61
907.136	19.61
907.443	6.61
907.75	14.61
908.057	67.61
908.364	25.61
908.67	27.61
908.977	16.61
909.283	13.61
909.59	2.61
909.896	23.61
910.203	14.61
910.509	12.61
910.816	8.61
911.122	15.61
911.428	12.61
911.734	22.61
912.04	28.61
912.346	17.61
912.652	29.61
912.958	30.61
913.264	10.61
913.57	8.61
913.876	11.61
914.182	2.61
914.487	20.61
914.793	17.61
915.099	9.61
915.404	28.61
915.71	18.61
916.015	36.61
916.321	11.61
916.626	18.61
916.931	1.61
917.236	17.61
917.542	-0.39
917.847	13.61
918.152	8.61
918.457	11.61
918.762	12.61
919.067	23.61
919.372	7.61
919.676	1.61
919.981	19.61
920.286	14.61
920.59	10.61
920.895	20.61
921.2	56.61
921.504	25.61
921.809	70.61
922.113	19.61
922.417	5.61
922.722	25.61
923.026	6.61
923.33	112.61
923.634	16.61
923.938	20.61
924.242	16.61
924.546	7.61
924.85	18.61
925.154	6.61
925.458	18.61
925.762	7.61
926.065	2.61
926.369	4.61
926.673	3.61
926.976	68.61
927.28	20.61
927.583	8.61
927.887	16.61
928.19	58.61
928.493	16.61
928.797	20.61
929.1	14.61
929.403	13.61
929.706	7.61
930.009	7.61
930.312	51.61
930.615	26.61
930.918	30.61
931.221	31.61
931.524	18.61
931.826	11.61
932.129	13.61
932.432	6.61
932.734	43.61
933.037	12.61
933.339	22.61
933.642	20.61
933.944	15.61
934.246	11.61
934.548	18.61
934.851	11.61
935.153	8.61
935.455	7.61
935.757	9.61
936.059	3.61
936.361	19.61
936.663	42.61
936.965	5.61
937.266	18.61
937.568	17.61
937.87	6.61
938.172	9.61
938.473	19.61
938.775	11.61
939.076	23.61
939.378	21.61
939.679	17.61
939.98	22.61
940.281	15.61
940.583	10.61
940.884	11.61
941.185	37.61
941.486	20.61
941.787	24.61
942.088	16.61
942.389	18.61
942.69	16.61
942.991	12.61
943.291	17.61
943.592	42.61
943.893	20.61
944.193	27.61
944.494	19.61
944.794	8.61
945.095	32.61
945.395	16.61
945.695	12.61
945.996	38.61
946.296	10.61
946.596	20.61
946.896	13.61
947.196	18.61
947.496	22.61
947.796	17.61
948.096	11.61
948.396	14.61
948.696	11.61
948.995	8.61
949.295	12.61
949.595	20.61
949.894	24.61
950.194	59.61
950.493	24.61
950.793	40.61
951.092	19.61
951.391	19.61
951.691	22.61
951.99	14.61
952.289	17.61
952.588	17.61
952.887	12.61
953.186	8.61
953.485	17.61
953.784	11.61
954.083	16.61
954.382	10.61
954.681	51.61
954.979	10.61
955.278	5.61
955.576	25.61
955.875	11.61
956.174	28.61
956.472	7.61
956.77	10.61
957.069	4.61
957.367	9.61
957.665	9.61
957.963	27.61
958.261	6.61
958.559	14.61
958.857	66.61
959.155	20.61
959.453	11.61
959.751	13.61
960.049	49.61
960.347	17.61
960.644	12.61
960.942	15.61
961.24	18.61
961.537	19.61
961.835	11.61
962.132	13.61
962.429	53.61
962.727	31.61
963.024	16.61
963.321	15.61
963.618	53.61
963.916	36.61
964.213	64.61
964.51	16.61
964.807	9.61
965.104	10.61
965.4	22.61
965.697	19.61
965.994	10.61
966.291	67.61
966.587	47.61
966.884	17.61
967.18	12.61
967.477	18.61
967.773	22.61
968.07	23.61
968.366	19.61
968.662	16.61
968.958	12.61
969.255	6.61
969.551	12.61
969.847	10.61
970.143	13.61
970.439	20.61
970.735	12.61
971.03	12.61
971.326	15.61
971.622	12.61
971.918	7.61
972.213	4.61
972.509	22.61
972.804	9.61
973.1	8.61
973.395	20.61
973.691	10.61
973.986	13.61
974.281	49.61
974.576	20.61
974.872	15.61
975.167	5.61
975.462	17.61
975.757	18.61
976.052	17.61
976.347	20.61
976.641	23.61
976.936	22.61
977.231	23.61
977.526	20.61
977.82	12.61
978.115	14.61
978.409	13.61
978.704	13.61
978.998	32.61
979.293	18.61
979.587	29.61
979.881	20.61
980.175	25.61
980.469	10.61
980.764	17.61
981.058	11.61
981.352	12.61
981.646	19.61
981.939	33.61
982.233	19.61
982.527	55.61
982.821	62.61
983.114	27.61
983.408	6.61
983.702	25.61
983.995	16.61
984.289	18.61
984.582	4.61
984.875	7.61
985.169	63.61
985.462	7.61
985.755	22.61
986.048	26.61
986.341	32.61
986.634	22.61
986.927	12.61
987.22	15.61
987.513	20.61
987.806	8.61
988.099	30.61
988.391	13.61
988.684	29.61
988.977	5.61
989.269	14.61
989.562	18.61
989.854	11.61
990.147	17.61
990.439	27.61
990.731	17.61
991.023	11.61
991.316	34.61
991.608	19.61
991.9	23.61
992.192	25.61
992.484	4.61
992.776	18.61
993.068	17.61
993.359	37.61
993.651	14.61
993.943	8.61
994.235	8.61
994.526	19.61
994.818	12.61
995.109	17.61
995.401	23.61
995.692	20.61
995.983	33.61
996.275	16.61
996.566	15.61
996.857	5.61
997.148	20.61
997.439	14.61
997.73	18.61
998.021	36.61
998.312	39.61
998.603	57.61
998.894	28.61
999.184	16.61
999.475	24.61
999.766	19.61
1000.056	1.61
1000.347	17.61
1000.637	8.61
1000.928	30.61
1001.218	23.61
1001.508	16.61
1001.799	24.61
1002.089	26.61
1002.379	21.61
1002.669	22.61
1002.959	12.61
1003.249	22.61
1003.539	17.61
1003.829	17.61
1004.119	15.61
1004.409	10.61
1004.698	4.61
1004.988	11.61
1005.278	57.61
1005.567	18.61
1005.857	11.61
1006.146	31.61
1006.436	11.61
1006.725	12.61
1007.014	15.61
1007.303	7.61
1007.593	14.61
1007.882	35.61
1008.171	29.61
1008.46	32.61
1008.749	28.61
1009.038	20.61
1009.327	7.61
1009.615	16.61
1009.904	19.61
1010.193	9.61
1010.482	6.61
1010.77	23.61
1011.059	15.61
1011.347	19.61
1011.636	15.61
1011.924	21.61
1012.212	15.61
1012.501	16.61
1012.789	21.61
1013.077	26.61
1013.365	9.61
1013.653	14.61
1013.941	24.61
1014.229	19.61
1014.517	12.61
1014.805	8.61
1015.093	15.61
1015.38	10.61
1015.668	16.61
1015.956	11.61
1016.243	9.61
1016.531	7.61
1016.818	25.61
1017.106	19.61
1017.393	14.61
1017.68	4.61
1017.968	13.61
1018.255	84.61
1018.542	17.61
1018.829	44.61
1019.116	24.61
1019.403	26.61
1019.69	12.61
1019.977	13.61
1020.264	17.61
1020.551	24.61
1020.837	12.61
1021.124	23.61
1021.411	33.61
1021.697	26.61
1021.984	12.61
1022.27	25.61
1022.557	17.61
1022.843	8.61
1023.129	10.61
1023.415	21.61
1023.702	16.61
1023.988	25.61
1024.274	17.61
1024.56	15.61
1024.846	5.61
1025.132	24.61
1025.418	3.61
1025.703	28.61
1025.989	48.61
1026.275	24.61
1026.56	19.61
1026.846	6.61
1027.132	10.61
1027.417	7.61
1027.703	24.61
1027.988	22.61
1028.273	42.61
1028.558	17.61
1028.844	22.61
