Data from USB2G147421__31__12-53-32-227.txt Node

Date: Tue Jun 28 12:53:32 UTC 2022
User: yes
Spectrometer: USB2G14742
Trigger mode: 4
Integration Time (sec): 2.000000E0
Scans to average: 1
Electric dark correction enabled: true
Nonlinearity correction enabled: false
Boxcar width: 0
XAxis mode: Wavelengths
Number of Pixels in Spectrum: 2048
>>>>>Begin Spectral Data<<<<<
339.471	-152.78
339.856	-2.78
340.241	-4.78
340.625	-2.78
341.01	-1.78
341.395	39.22
341.779	8.22
342.163	5.22
342.548	11.22
342.932	14.22
343.317	11.22
343.701	9.22
344.085	10.22
344.469	6.22
344.853	6.22
345.238	8.22
345.622	11.22
346.006	24.22
346.39	6.22
346.774	10.22
347.157	11.22
347.541	13.22
347.925	4.22
348.309	13.22
348.693	28.22
349.076	8.22
349.46	26.22
349.843	12.22
350.227	9.22
350.61	66.22
350.994	18.22
351.377	10.22
351.761	32.22
352.144	26.22
352.527	1.22
352.91	9.22
353.294	14.22
353.677	17.22
354.06	15.22
354.443	95.22
354.826	7.22
355.209	5.22
355.592	6.22
355.975	5.22
356.358	21.22
356.74	21.22
357.123	8.22
357.506	12.22
357.889	8.22
358.271	21.22
358.654	10.22
359.036	14.22
359.419	11.22
359.801	12.22
360.184	14.22
360.566	14.22
360.948	28.22
361.331	12.22
361.713	12.22
362.095	20.22
362.477	9.22
362.859	8.22
363.241	12.22
363.623	7.22
364.005	13.22
364.387	24.22
364.769	6.22
365.151	16.22
365.533	31.22
365.915	29.22
366.296	14.22
366.678	64.22
367.06	10.22
367.441	17.22
367.823	24.22
368.204	12.22
368.586	12.22
368.967	17.22
369.348	19.22
369.73	17.22
370.111	13.22
370.492	5.22
370.873	14.22
371.255	42.22
371.636	11.22
372.017	17.22
372.398	22.22
372.779	22.22
373.16	9.22
373.54	5.22
373.921	11.22
374.302	2.22
374.683	22.22
375.064	11.22
375.444	8.22
375.825	16.22
376.205	15.22
376.586	23.22
376.966	12.22
377.347	14.22
377.727	9.22
378.108	10.22
378.488	12.22
378.868	6.22
379.248	10.22
379.629	10.22
380.009	43.22
380.389	10.22
380.769	18.22
381.149	9.22
381.529	23.22
381.909	24.22
382.289	13.22
382.668	94.22
383.048	15.22
383.428	6.22
383.808	11.22
384.187	6.22
384.567	19.22
384.946	5.22
385.326	17.22
385.705	21.22
386.085	3.22
386.464	20.22
386.844	13.22
387.223	13.22
387.602	14.22
387.981	16.22
388.361	10.22
388.74	16.22
389.119	8.22
389.498	10.22
389.877	12.22
390.256	9.22
390.635	21.22
391.013	16.22
391.392	7.22
391.771	47.22
392.15	18.22
392.528	17.22
392.907	7.22
393.286	16.22
393.664	24.22
394.043	8.22
394.421	14.22
394.8	12.22
395.178	6.22
395.556	22.22
395.935	15.22
396.313	12.22
396.691	14.22
397.069	6.22
397.447	4.22
397.825	13.22
398.203	14.22
398.581	27.22
398.959	9.22
399.337	17.22
399.715	76.22
400.093	9.22
400.471	8.22
400.848	5.22
401.226	18.22
401.604	11.22
401.981	14.22
402.359	14.22
402.736	8.22
403.114	47.22
403.491	19.22
403.868	20.22
404.246	56.22
404.623	28.22
405	15.22
405.377	8.22
405.755	17.22
406.132	7.22
406.509	1.22
406.886	8.22
407.263	22.22
407.64	6.22
408.017	13.22
408.393	14.22
408.77	20.22
409.147	12.22
409.524	12.22
409.9	13.22
410.277	18.22
410.653	16.22
411.03	14.22
411.406	4.22
411.783	32.22
412.159	18.22
412.536	20.22
412.912	7.22
413.288	28.22
413.664	4.22
414.04	7.22
414.417	23.22
414.793	9.22
415.169	14.22
415.545	21.22
415.921	17.22
416.297	28.22
416.672	5.22
417.048	6.22
417.424	7.22
417.8	42.22
418.175	7.22
418.551	4.22
418.927	9.22
419.302	74.22
419.678	21.22
420.053	12.22
420.429	22.22
420.804	9.22
421.179	8.22
421.554	10.22
421.93	9.22
422.305	69.22
422.68	15.22
423.055	15.22
423.43	16.22
423.805	10.22
424.18	7.22
424.555	21.22
424.93	18.22
425.305	8.22
425.68	14.22
426.054	10.22
426.429	20.22
426.804	18.22
427.178	22.22
427.553	10.22
427.927	59.22
428.302	10.22
428.676	14.22
429.051	9.22
429.425	6.22
429.799	23.22
430.174	14.22
430.548	9.22
430.922	26.22
431.296	13.22
431.67	25.22
432.044	25.22
432.418	5.22
432.792	7.22
433.166	11.22
433.54	22.22
433.914	21.22
434.287	17.22
434.661	10.22
435.035	13.22
435.408	18.22
435.782	15.22
436.156	18.22
436.529	60.22
436.903	13.22
437.276	13.22
437.649	30.22
438.023	55.22
438.396	16.22
438.769	17.22
439.142	15.22
439.515	28.22
439.889	19.22
440.262	24.22
440.635	39.22
441.008	23.22
441.38	24.22
441.753	16.22
442.126	16.22
442.499	11.22
442.872	73.22
443.244	53.22
443.617	13.22
443.99	30.22
444.362	22.22
444.735	12.22
445.107	23.22
445.48	51.22
445.852	13.22
446.224	17.22
446.597	20.22
446.969	24.22
447.341	34.22
447.713	30.22
448.085	14.22
448.457	28.22
448.829	19.22
449.201	29.22
449.573	26.22
449.945	24.22
450.317	18.22
450.689	18.22
451.061	25.22
451.432	22.22
451.804	27.22
452.176	39.22
452.547	23.22
452.919	19.22
453.29	25.22
453.662	27.22
454.033	19.22
454.404	39.22
454.776	17.22
455.147	12.22
455.518	28.22
455.889	27.22
456.26	24.22
456.631	30.22
457.002	21.22
457.373	23.22
457.744	38.22
458.115	21.22
458.486	29.22
458.857	15.22
459.228	25.22
459.598	15.22
459.969	19.22
460.34	34.22
460.71	16.22
461.081	14.22
461.451	31.22
461.822	24.22
462.192	12.22
462.563	13.22
462.933	20.22
463.303	18.22
463.673	28.22
464.044	27.22
464.414	28.22
464.784	27.22
465.154	17.22
465.524	20.22
465.894	26.22
466.264	19.22
466.634	24.22
467.003	23.22
467.373	17.22
467.743	33.22
468.113	28.22
468.482	23.22
468.852	25.22
469.221	24.22
469.591	18.22
469.96	33.22
470.33	13.22
470.699	70.22
471.068	11.22
471.438	27.22
471.807	26.22
472.176	30.22
472.545	49.22
472.914	17.22
473.283	23.22
473.652	22.22
474.021	36.22
474.39	21.22
474.759	27.22
475.128	16.22
475.497	16.22
475.865	14.22
476.234	17.22
476.603	14.22
476.971	14.22
477.34	13.22
477.708	30.22
478.077	17.22
478.445	20.22
478.814	17.22
479.182	23.22
479.55	19.22
479.919	9.22
480.287	13.22
480.655	33.22
481.023	13.22
481.391	17.22
481.759	17.22
482.127	18.22
482.495	15.22
482.863	21.22
483.231	8.22
483.598	22.22
483.966	27.22
484.334	20.22
484.701	22.22
485.069	31.22
485.437	45.22
485.804	15.22
486.172	19.22
486.539	21.22
486.906	16.22
487.274	30.22
487.641	26.22
488.008	27.22
488.375	34.22
488.743	21.22
489.11	23.22
489.477	12.22
489.844	18.22
490.211	17.22
490.578	20.22
490.945	28.22
491.311	27.22
491.678	25.22
492.045	33.22
492.412	14.22
492.778	22.22
493.145	29.22
493.511	22.22
493.878	27.22
494.244	21.22
494.611	27.22
494.977	21.22
495.344	19.22
495.71	68.22
496.076	18.22
496.442	29.22
496.808	16.22
497.175	28.22
497.541	21.22
497.907	24.22
498.273	47.22
498.638	44.22
499.004	22.22
499.37	23.22
499.736	60.22
500.102	21.22
500.467	31.22
500.833	21.22
501.199	31.22
501.564	27.22
501.93	24.22
502.295	38.22
502.661	27.22
503.026	36.22
503.391	30.22
503.757	35.22
504.122	24.22
504.487	28.22
504.852	38.22
505.217	36.22
505.582	23.22
505.947	34.22
506.312	35.22
506.677	35.22
507.042	31.22
507.407	43.22
507.772	56.22
508.136	50.22
508.501	45.22
508.866	32.22
509.23	55.22
509.595	37.22
509.959	40.22
510.324	35.22
510.688	55.22
511.053	47.22
511.417	98.22
511.781	38.22
512.146	37.22
512.51	62.22
512.874	82.22
513.238	37.22
513.602	31.22
513.966	47.22
514.33	47.22
514.694	27.22
515.058	36.22
515.422	56.22
515.785	57.22
516.149	42.22
516.513	49.22
516.876	46.22
517.24	50.22
517.604	38.22
517.967	58.22
518.331	38.22
518.694	46.22
519.057	54.22
519.421	43.22
519.784	47.22
520.147	65.22
520.51	70.22
520.873	43.22
521.237	53.22
521.6	52.22
521.963	41.22
522.326	49.22
522.688	41.22
523.051	54.22
523.414	58.22
523.777	131.22
524.14	50.22
524.502	60.22
524.865	49.22
525.228	54.22
525.59	53.22
525.953	65.22
526.315	53.22
526.677	51.22
527.04	99.22
527.402	62.22
527.764	48.22
528.127	50.22
528.489	55.22
528.851	60.22
529.213	59.22
529.575	51.22
529.937	73.22
530.299	51.22
530.661	58.22
531.023	61.22
531.384	52.22
531.746	60.22
532.108	60.22
532.47	55.22
532.831	63.22
533.193	47.22
533.554	71.22
533.916	49.22
534.277	66.22
534.639	53.22
535	59.22
535.361	69.22
535.723	75.22
536.084	63.22
536.445	85.22
536.806	134.22
537.167	95.22
537.528	67.22
537.889	79.22
538.25	65.22
538.611	73.22
538.972	62.22
539.333	69.22
539.693	91.22
540.054	259.22
540.415	65.22
540.775	66.22
541.136	74.22
541.496	56.22
541.857	80.22
542.217	71.22
542.578	85.22
542.938	92.22
543.298	75.22
543.658	73.22
544.019	75.22
544.379	79.22
544.739	71.22
545.099	76.22
545.459	76.22
545.819	85.22
546.179	69.22
546.539	98.22
546.899	70.22
547.258	87.22
547.618	77.22
547.978	91.22
548.337	88.22
548.697	73.22
549.056	100.22
549.416	83.22
549.775	82.22
550.135	85.22
550.494	76.22
550.854	95.22
551.213	87.22
551.572	85.22
551.931	89.22
552.29	82.22
552.649	89.22
553.008	74.22
553.367	114.22
553.726	107.22
554.085	85.22
554.444	186.22
554.803	82.22
555.162	94.22
555.52	82.22
555.879	98.22
556.238	86.22
556.596	77.22
556.955	91.22
557.313	97.22
557.672	99.22
558.03	91.22
558.388	82.22
558.747	105.22
559.105	85.22
559.463	88.22
559.821	79.22
560.179	97.22
560.537	90.22
560.896	86.22
561.253	81.22
561.611	84.22
561.969	87.22
562.327	87.22
562.685	95.22
563.043	90.22
563.4	91.22
563.758	104.22
564.116	100.22
564.473	90.22
564.831	86.22
565.188	93.22
565.546	133.22
565.903	97.22
566.26	100.22
566.617	96.22
566.975	108.22
567.332	97.22
567.689	94.22
568.046	99.22
568.403	109.22
568.76	96.22
569.117	105.22
569.474	98.22
569.831	91.22
570.188	101.22
570.544	98.22
570.901	98.22
571.258	133.22
571.614	103.22
571.971	113.22
572.328	91.22
572.684	96.22
573.04	120.22
573.397	95.22
573.753	122.22
574.109	109.22
574.466	117.22
574.822	101.22
575.178	109.22
575.534	103.22
575.89	115.22
576.246	105.22
576.602	115.22
576.958	111.22
577.314	119.22
577.67	104.22
578.026	106.22
578.381	105.22
578.737	108.22
579.093	115.22
579.448	121.22
579.804	142.22
580.159	108.22
580.515	95.22
580.87	119.22
581.226	112.22
581.581	124.22
581.936	119.22
582.291	113.22
582.647	108.22
583.002	126.22
583.357	101.22
583.712	115.22
584.067	106.22
584.422	110.22
584.777	118.22
585.131	117.22
585.486	112.22
585.841	105.22
586.196	124.22
586.55	109.22
586.905	110.22
587.26	110.22
587.614	108.22
587.969	126.22
588.323	112.22
588.677	126.22
589.032	125.22
589.386	111.22
589.74	134.22
590.094	129.22
590.449	127.22
590.803	147.22
591.157	111.22
591.511	144.22
591.865	124.22
592.219	129.22
592.573	113.22
592.926	109.22
593.28	108.22
593.634	140.22
593.988	111.22
594.341	101.22
594.695	115.22
595.048	106.22
595.402	108.22
595.755	97.22
596.109	129.22
596.462	121.22
596.815	108.22
597.169	123.22
597.522	103.22
597.875	152.22
598.228	114.22
598.581	107.22
598.934	143.22
599.287	97.22
599.64	117.22
599.993	104.22
600.346	106.22
600.698	101.22
601.051	109.22
601.404	102.22
601.757	100.22
602.109	113.22
602.462	106.22
602.814	99.22
603.167	105.22
603.519	101.22
603.871	111.22
604.224	108.22
604.576	99.22
604.928	125.22
605.28	104.22
605.633	109.22
605.985	115.22
606.337	105.22
606.689	94.22
607.041	128.22
607.392	92.22
607.744	100.22
608.096	89.22
608.448	96.22
608.8	102.22
609.151	96.22
609.503	98.22
609.854	95.22
610.206	123.22
610.557	101.22
610.909	85.22
611.26	105.22
611.612	99.22
611.963	86.22
612.314	108.22
612.665	94.22
613.016	98.22
613.367	89.22
613.719	117.22
614.07	91.22
614.42	83.22
614.771	87.22
615.122	95.22
615.473	85.22
615.824	83.22
616.174	100.22
616.525	74.22
616.876	78.22
617.226	83.22
617.577	87.22
617.927	83.22
618.278	74.22
618.628	153.22
618.979	92.22
619.329	89.22
619.679	98.22
620.029	93.22
620.379	81.22
620.729	101.22
621.08	83.22
621.43	98.22
621.779	107.22
622.129	85.22
622.479	83.22
622.829	79.22
623.179	79.22
623.529	75.22
623.878	80.22
624.228	71.22
624.577	66.22
624.927	72.22
625.276	67.22
625.626	83.22
625.975	92.22
626.325	72.22
626.674	115.22
627.023	69.22
627.372	77.22
627.722	96.22
628.071	93.22
628.42	75.22
628.769	110.22
629.118	76.22
629.467	72.22
629.815	77.22
630.164	56.22
630.513	73.22
630.862	107.22
631.21	72.22
631.559	72.22
631.908	65.22
632.256	60.22
632.605	54.22
632.953	61.22
633.302	55.22
633.65	79.22
633.998	128.22
634.346	79.22
634.695	56.22
635.043	53.22
635.391	85.22
635.739	52.22
636.087	67.22
636.435	75.22
636.783	68.22
637.131	48.22
637.479	70.22
637.826	56.22
638.174	59.22
638.522	60.22
638.869	105.22
639.217	55.22
639.564	54.22
639.912	48.22
640.259	56.22
640.607	60.22
640.954	67.22
641.301	66.22
641.649	51.22
641.996	55.22
642.343	61.22
642.69	57.22
643.037	60.22
643.384	86.22
643.731	50.22
644.078	82.22
644.425	48.22
644.772	53.22
645.119	47.22
645.465	47.22
645.812	53.22
646.159	59.22
646.505	56.22
646.852	73.22
647.198	43.22
647.545	53.22
647.891	51.22
648.237	63.22
648.584	57.22
648.93	44.22
649.276	54.22
649.622	54.22
649.969	64.22
650.315	53.22
650.661	56.22
651.007	50.22
651.352	59.22
651.698	37.22
652.044	43.22
652.39	56.22
652.736	44.22
653.081	38.22
653.427	43.22
653.773	44.22
654.118	46.22
654.464	42.22
654.809	52.22
655.154	35.22
655.5	43.22
655.845	36.22
656.19	38.22
656.536	43.22
656.881	41.22
657.226	27.22
657.571	94.22
657.916	38.22
658.261	34.22
658.606	36.22
658.951	26.22
659.295	33.22
659.64	27.22
659.985	32.22
660.33	30.22
660.674	35.22
661.019	37.22
661.363	39.22
661.708	38.22
662.052	24.22
662.397	33.22
662.741	36.22
663.085	28.22
663.429	43.22
663.774	76.22
664.118	25.22
664.462	29.22
664.806	22.22
665.15	48.22
665.494	22.22
665.838	24.22
666.182	38.22
666.526	33.22
666.869	27.22
667.213	22.22
667.557	36.22
667.9	42.22
668.244	30.22
668.587	35.22
668.931	25.22
669.274	24.22
669.618	26.22
669.961	34.22
670.304	27.22
670.648	29.22
670.991	19.22
671.334	19.22
671.677	14.22
672.02	19.22
672.363	19.22
672.706	26.22
673.049	31.22
673.392	28.22
673.735	22.22
674.077	16.22
674.42	26.22
674.763	23.22
675.105	25.22
675.448	36.22
675.79	22.22
676.133	30.22
676.475	19.22
676.818	21.22
677.16	17.22
677.502	28.22
677.844	37.22
678.187	19.22
678.529	51.22
678.871	33.22
679.213	24.22
679.555	27.22
679.897	33.22
680.239	20.22
680.58	22.22
680.922	33.22
681.264	39.22
681.606	28.22
681.947	26.22
682.289	28.22
682.631	58.22
682.972	17.22
683.313	28.22
683.655	26.22
683.996	18.22
684.338	23.22
684.679	16.22
685.02	13.22
685.361	29.22
685.702	25.22
686.043	29.22
686.384	21.22
686.725	24.22
687.066	38.22
687.407	15.22
687.748	21.22
688.089	50.22
688.43	22.22
688.77	58.22
689.111	36.22
689.451	25.22
689.792	29.22
690.132	22.22
690.473	26.22
690.813	22.22
691.154	29.22
691.494	25.22
691.834	25.22
692.174	16.22
692.515	17.22
692.855	21.22
693.195	26.22
693.535	23.22
693.875	19.22
694.215	29.22
694.554	33.22
694.894	19.22
695.234	26.22
695.574	30.22
695.913	30.22
696.253	26.22
696.593	34.22
696.932	23.22
697.272	22.22
697.611	17.22
697.95	33.22
698.29	18.22
698.629	29.22
698.968	18.22
699.307	15.22
699.647	22.22
699.986	29.22
700.325	22.22
700.664	20.22
701.003	22.22
701.341	15.22
701.68	16.22
702.019	13.22
702.358	16.22
702.697	30.22
703.035	28.22
703.374	20.22
703.712	29.22
704.051	13.22
704.389	28.22
704.728	16.22
705.066	16.22
705.404	27.22
705.743	28.22
706.081	18.22
706.419	13.22
706.757	20.22
707.095	41.22
707.433	25.22
707.771	23.22
708.109	14.22
708.447	25.22
708.785	28.22
709.123	29.22
709.46	21.22
709.798	16.22
710.136	29.22
710.473	26.22
710.811	29.22
711.148	28.22
711.486	18.22
711.823	12.22
712.16	24.22
712.498	23.22
712.835	27.22
713.172	24.22
713.509	32.22
713.846	80.22
714.183	31.22
714.52	17.22
714.857	16.22
715.194	14.22
715.531	23.22
715.868	31.22
716.205	13.22
716.541	26.22
716.878	30.22
717.215	21.22
717.551	28.22
717.888	23.22
718.224	72.22
718.561	28.22
718.897	17.22
719.233	15.22
719.57	17.22
719.906	14.22
720.242	10.22
720.578	10.22
720.914	23.22
721.25	21.22
721.586	12.22
721.922	8.22
722.258	30.22
722.594	16.22
722.929	19.22
723.265	19.22
723.601	27.22
723.937	37.22
724.272	14.22
724.608	24.22
724.943	9.22
725.279	9.22
725.614	11.22
725.949	21.22
726.285	18.22
726.62	45.22
726.955	9.22
727.29	20.22
727.625	15.22
727.96	22.22
728.295	37.22
728.63	24.22
728.965	6.22
729.3	22.22
729.635	68.22
729.97	16.22
730.304	14.22
730.639	15.22
730.974	15.22
731.308	29.22
731.643	10.22
731.977	26.22
732.311	29.22
732.646	13.22
732.98	16.22
733.314	4.22
733.649	20.22
733.983	24.22
734.317	44.22
734.651	12.22
734.985	17.22
735.319	13.22
735.653	17.22
735.987	20.22
736.321	36.22
736.654	9.22
736.988	23.22
737.322	28.22
737.655	21.22
737.989	22.22
738.322	13.22
738.656	17.22
738.989	19.22
739.323	13.22
739.656	19.22
739.989	28.22
740.323	11.22
740.656	13.22
740.989	12.22
741.322	17.22
741.655	22.22
741.988	38.22
742.321	30.22
742.654	12.22
742.987	11.22
743.319	15.22
743.652	22.22
743.985	26.22
744.317	12.22
744.65	7.22
744.983	25.22
745.315	13.22
745.648	18.22
745.98	18.22
746.312	15.22
746.645	18.22
746.977	31.22
747.309	18.22
747.641	11.22
747.973	28.22
748.305	11.22
748.637	15.22
748.969	13.22
749.301	22.22
749.633	10.22
749.965	6.22
750.297	14.22
750.628	22.22
750.96	23.22
751.292	32.22
751.623	15.22
751.955	19.22
752.286	26.22
752.618	10.22
752.949	9.22
753.28	25.22
753.611	6.22
753.943	11.22
754.274	22.22
754.605	17.22
754.936	20.22
755.267	12.22
755.598	18.22
755.929	14.22
756.26	8.22
756.591	145.22
756.921	13.22
757.252	16.22
757.583	14.22
757.913	12.22
758.244	9.22
758.574	20.22
758.905	8.22
759.235	25.22
759.566	6.22
759.896	37.22
760.226	24.22
760.557	3.22
760.887	6.22
761.217	9.22
761.547	24.22
761.877	18.22
762.207	34.22
762.537	15.22
762.867	14.22
763.197	41.22
763.526	11.22
763.856	22.22
764.186	18.22
764.515	6.22
764.845	4.22
765.175	18.22
765.504	13.22
765.833	3.22
766.163	11.22
766.492	9.22
766.821	14.22
767.151	19.22
767.48	12.22
767.809	17.22
768.138	16.22
768.467	9.22
768.796	10.22
769.125	13.22
769.454	10.22
769.783	16.22
770.112	15.22
770.44	24.22
770.769	10.22
771.098	19.22
771.426	15.22
771.755	8.22
772.083	13.22
772.412	15.22
772.74	13.22
773.069	82.22
773.397	26.22
773.725	5.22
774.053	50.22
774.381	24.22
774.71	27.22
775.038	6.22
775.366	7.22
775.693	13.22
776.021	18.22
776.349	10.22
776.677	15.22
777.005	10.22
777.332	18.22
777.66	9.22
777.988	18.22
778.315	29.22
778.643	15.22
778.97	11.22
779.298	10.22
779.625	9.22
779.952	11.22
780.28	17.22
780.607	17.22
780.934	22.22
781.261	21.22
781.588	11.22
781.915	23.22
782.242	21.22
782.569	34.22
782.896	18.22
783.223	12.22
783.549	25.22
783.876	20.22
784.203	10.22
784.529	36.22
784.856	16.22
785.182	27.22
785.509	29.22
785.835	15.22
786.162	13.22
786.488	12.22
786.814	6.22
787.14	22.22
787.466	24.22
787.793	20.22
788.119	6.22
788.445	14.22
788.771	31.22
789.097	10.22
789.422	14.22
789.748	8.22
790.074	7.22
790.4	27.22
790.725	13.22
791.051	79.22
791.376	13.22
791.702	16.22
792.027	22.22
792.353	9.22
792.678	17.22
793.004	22.22
793.329	24.22
793.654	12.22
793.979	18.22
794.304	10.22
794.629	18.22
794.954	11.22
795.279	12.22
795.604	25.22
795.929	18.22
796.254	11.22
796.579	6.22
796.903	72.22
797.228	9.22
797.553	33.22
797.877	9.22
798.202	26.22
798.526	12.22
798.851	9.22
799.175	20.22
799.499	14.22
799.823	8.22
800.148	10.22
800.472	9.22
800.796	13.22
801.12	21.22
801.444	19.22
801.768	13.22
802.092	13.22
802.416	15.22
802.74	26.22
803.063	16.22
803.387	23.22
803.711	89.22
804.034	18.22
804.358	18.22
804.681	26.22
805.005	16.22
805.328	18.22
805.652	9.22
805.975	8.22
806.298	21.22
806.621	17.22
806.944	20.22
807.268	31.22
807.591	28.22
807.914	7.22
808.237	16.22
808.56	19.22
808.882	28.22
809.205	32.22
809.528	9.22
809.851	11.22
810.173	15.22
810.496	92.22
810.818	63.22
811.141	13.22
811.463	29.22
811.786	62.22
812.108	6.22
812.43	15.22
812.753	12.22
813.075	33.22
813.397	21.22
813.719	21.22
814.041	15.22
814.363	9.22
814.685	8.22
815.007	15.22
815.329	17.22
815.651	13.22
815.972	11.22
816.294	27.22
816.616	8.22
816.937	11.22
817.259	13.22
817.58	23.22
817.902	0.22
818.223	23.22
818.545	17.22
818.866	33.22
819.187	15.22
819.508	32.22
819.83	17.22
820.151	33.22
820.472	7.22
820.793	23.22
821.114	16.22
821.435	12.22
821.755	1.22
822.076	15.22
822.397	10.22
822.718	53.22
823.038	20.22
823.359	35.22
823.679	17.22
824	36.22
824.32	11.22
824.641	13.22
824.961	17.22
825.281	17.22
825.602	14.22
825.922	3.22
826.242	21.22
826.562	29.22
826.882	15.22
827.202	25.22
827.522	45.22
827.842	13.22
828.162	7.22
828.481	10.22
828.801	18.22
829.121	30.22
829.441	35.22
829.76	16.22
830.08	11.22
830.399	7.22
830.719	19.22
831.038	11.22
831.357	8.22
831.677	16.22
831.996	29.22
832.315	18.22
832.634	14.22
832.953	8.22
833.272	17.22
833.591	15.22
833.91	5.22
834.229	8.22
834.548	16.22
834.867	17.22
835.185	15.22
835.504	38.22
835.823	83.22
836.141	18.22
836.46	13.22
836.778	13.22
837.097	9.22
837.415	4.22
837.733	12.22
838.051	11.22
838.37	15.22
838.688	18.22
839.006	8.22
839.324	7.22
839.642	21.22
839.96	13.22
840.278	29.22
840.596	20.22
840.914	22.22
841.231	30.22
841.549	28.22
841.867	5.22
842.184	23.22
842.502	31.22
842.819	16.22
843.137	24.22
843.454	17.22
843.772	19.22
844.089	27.22
844.406	64.22
844.723	19.22
845.041	11.22
845.358	20.22
845.675	19.22
845.992	9.22
846.309	11.22
846.626	16.22
846.942	29.22
847.259	8.22
847.576	8.22
847.893	17.22
848.209	12.22
848.526	9.22
848.842	49.22
849.159	13.22
849.475	13.22
849.792	7.22
850.108	25.22
850.424	8.22
850.741	32.22
851.057	17.22
851.373	10.22
851.689	15.22
852.005	24.22
852.321	14.22
852.637	19.22
852.953	11.22
853.269	18.22
853.584	6.22
853.9	4.22
854.216	13.22
854.531	6.22
854.847	19.22
855.163	13.22
855.478	19.22
855.793	12.22
856.109	10.22
856.424	11.22
856.739	5.22
857.055	17.22
857.37	22.22
857.685	17.22
858	22.22
858.315	40.22
858.63	8.22
858.945	17.22
859.26	24.22
859.574	26.22
859.889	11.22
860.204	14.22
860.519	25.22
860.833	17.22
861.148	11.22
861.462	24.22
861.777	3.22
862.091	33.22
862.405	3.22
862.72	15.22
863.034	28.22
863.348	29.22
863.662	11.22
863.976	35.22
864.291	244.22
864.605	17.22
864.918	13.22
865.232	13.22
865.546	18.22
865.86	38.22
866.174	14.22
866.487	17.22
866.801	17.22
867.115	14.22
867.428	17.22
867.742	22.22
868.055	6.22
868.368	9.22
868.682	13.22
868.995	38.22
869.308	15.22
869.621	19.22
869.935	11.22
870.248	24.22
870.561	16.22
870.874	22.22
871.187	23.22
871.499	23.22
871.812	10.22
872.125	20.22
872.438	37.22
872.75	11.22
873.063	11.22
873.376	4.22
873.688	13.22
874.001	19.22
874.313	6.22
874.625	71.22
874.938	13.22
875.25	5.22
875.562	13.22
875.874	15.22
876.186	-1.78
876.498	34.22
876.81	31.22
877.122	36.22
877.434	29.22
877.746	26.22
878.058	24.22
878.37	14.22
878.681	8.22
878.993	7.22
879.304	24.22
879.616	5.22
879.927	11.22
880.239	36.22
880.55	15.22
880.862	12.22
881.173	15.22
881.484	10.22
881.795	13.22
882.106	71.22
882.417	29.22
882.729	10.22
883.039	22.22
883.35	11.22
883.661	21.22
883.972	14.22
884.283	15.22
884.594	31.22
884.904	26.22
885.215	72.22
885.525	25.22
885.836	7.22
886.146	33.22
886.457	24.22
886.767	28.22
887.077	9.22
887.388	24.22
887.698	5.22
888.008	9.22
888.318	7.22
888.628	23.22
888.938	43.22
889.248	22.22
889.558	19.22
889.868	5.22
890.178	11.22
890.487	6.22
890.797	57.22
891.107	26.22
891.416	12.22
891.726	10.22
892.035	12.22
892.345	8.22
892.654	4.22
892.963	33.22
893.273	14.22
893.582	23.22
893.891	15.22
894.2	27.22
894.509	11.22
894.818	3.22
895.127	26.22
895.436	21.22
895.745	6.22
896.054	14.22
896.362	24.22
896.671	7.22
896.98	32.22
897.288	9.22
897.597	15.22
897.905	3.22
898.214	24.22
898.522	21.22
898.831	5.22
899.139	8.22
899.447	13.22
899.755	23.22
900.063	15.22
900.372	133.22
900.68	5.22
900.988	8.22
901.296	22.22
901.603	25.22
901.911	5.22
902.219	2.22
902.527	18.22
902.834	15.22
903.142	18.22
903.45	17.22
903.757	5.22
904.065	22.22
904.372	28.22
904.679	10.22
904.987	6.22
905.294	15.22
905.601	22.22
905.908	12.22
906.215	17.22
906.522	75.22
906.829	18.22
907.136	20.22
907.443	2.22
907.75	15.22
908.057	65.22
908.364	27.22
908.67	35.22
908.977	19.22
909.283	12.22
909.59	5.22
909.896	20.22
910.203	10.22
910.509	5.22
910.816	12.22
911.122	16.22
911.428	18.22
911.734	28.22
912.04	31.22
912.346	26.22
912.652	28.22
912.958	32.22
913.264	16.22
913.57	9.22
913.876	10.22
914.182	5.22
914.487	25.22
914.793	12.22
915.099	6.22
915.404	25.22
915.71	22.22
916.015	29.22
916.321	9.22
916.626	20.22
916.931	15.22
917.236	15.22
917.542	4.22
917.847	10.22
918.152	11.22
918.457	6.22
918.762	11.22
919.067	17.22
919.372	6.22
919.676	2.22
919.981	21.22
920.286	12.22
920.59	14.22
920.895	15.22
921.2	67.22
921.504	31.22
921.809	80.22
922.113	26.22
922.417	5.22
922.722	23.22
923.026	10.22
923.33	109.22
923.634	15.22
923.938	20.22
924.242	11.22
924.546	6.22
924.85	20.22
925.154	5.22
925.458	21.22
925.762	7.22
926.065	11.22
926.369	15.22
926.673	5.22
926.976	67.22
927.28	19.22
927.583	11.22
927.887	15.22
928.19	63.22
928.493	20.22
928.797	24.22
929.1	15.22
929.403	10.22
929.706	8.22
930.009	15.22
930.312	49.22
930.615	28.22
930.918	31.22
931.221	37.22
931.524	16.22
931.826	11.22
932.129	16.22
932.432	5.22
932.734	48.22
933.037	18.22
933.339	20.22
933.642	26.22
933.944	18.22
934.246	16.22
934.548	17.22
934.851	8.22
935.153	8.22
935.455	13.22
935.757	11.22
936.059	4.22
936.361	22.22
936.663	43.22
936.965	6.22
937.266	17.22
937.568	21.22
937.87	12.22
938.172	11.22
938.473	16.22
938.775	13.22
939.076	28.22
939.378	17.22
939.679	16.22
939.98	18.22
940.281	15.22
940.583	11.22
940.884	13.22
941.185	32.22
941.486	20.22
941.787	33.22
942.088	14.22
942.389	24.22
942.69	19.22
942.991	14.22
943.291	17.22
943.592	45.22
943.893	21.22
944.193	29.22
944.494	20.22
944.794	14.22
945.095	40.22
945.395	15.22
945.695	13.22
945.996	47.22
946.296	9.22
946.596	30.22
946.896	16.22
947.196	24.22
947.496	22.22
947.796	22.22
948.096	17.22
948.396	19.22
948.696	17.22
948.995	10.22
949.295	6.22
949.595	25.22
949.894	30.22
950.194	60.22
950.493	31.22
950.793	47.22
951.092	24.22
951.391	18.22
951.691	17.22
951.99	20.22
952.289	13.22
952.588	18.22
952.887	14.22
953.186	7.22
953.485	15.22
953.784	9.22
954.083	21.22
954.382	10.22
954.681	46.22
954.979	12.22
955.278	9.22
955.576	24.22
955.875	11.22
956.174	30.22
956.472	8.22
956.77	15.22
957.069	2.22
957.367	11.22
957.665	6.22
957.963	30.22
958.261	8.22
958.559	13.22
958.857	67.22
959.155	24.22
959.453	17.22
959.751	15.22
960.049	53.22
960.347	12.22
960.644	20.22
960.942	20.22
961.24	17.22
961.537	19.22
961.835	8.22
962.132	17.22
962.429	62.22
962.727	27.22
963.024	14.22
963.321	14.22
963.618	55.22
963.916	32.22
964.213	67.22
964.51	14.22
964.807	8.22
965.104	14.22
965.4	17.22
965.697	14.22
965.994	15.22
966.291	72.22
966.587	46.22
966.884	16.22
967.18	13.22
967.477	24.22
967.773	25.22
968.07	23.22
968.366	25.22
968.662	15.22
968.958	11.22
969.255	8.22
969.551	9.22
969.847	12.22
970.143	11.22
970.439	20.22
970.735	15.22
971.03	15.22
971.326	21.22
971.622	14.22
971.918	13.22
972.213	2.22
972.509	20.22
972.804	11.22
973.1	7.22
973.395	20.22
973.691	5.22
973.986	10.22
974.281	55.22
974.576	14.22
974.872	18.22
975.167	6.22
975.462	17.22
975.757	23.22
976.052	17.22
976.347	21.22
976.641	21.22
976.936	23.22
977.231	14.22
977.526	17.22
977.82	16.22
978.115	16.22
978.409	14.22
978.704	12.22
978.998	21.22
979.293	23.22
979.587	29.22
979.881	24.22
980.175	32.22
980.469	11.22
980.764	22.22
981.058	14.22
981.352	19.22
981.646	14.22
981.939	30.22
982.233	25.22
982.527	55.22
982.821	60.22
983.114	28.22
983.408	7.22
983.702	25.22
983.995	20.22
984.289	25.22
984.582	8.22
984.875	4.22
985.169	71.22
985.462	5.22
985.755	24.22
986.048	21.22
986.341	32.22
986.634	23.22
986.927	15.22
987.22	15.22
987.513	23.22
987.806	7.22
988.099	33.22
988.391	12.22
988.684	26.22
988.977	3.22
989.269	15.22
989.562	24.22
989.854	14.22
990.147	20.22
990.439	30.22
990.731	19.22
991.023	16.22
991.316	25.22
991.608	19.22
991.9	27.22
992.192	25.22
992.484	5.22
992.776	19.22
993.068	12.22
993.359	39.22
993.651	20.22
993.943	13.22
994.235	10.22
994.526	23.22
994.818	12.22
995.109	16.22
995.401	26.22
995.692	24.22
995.983	35.22
996.275	17.22
996.566	20.22
996.857	5.22
997.148	24.22
997.439	12.22
997.73	21.22
998.021	43.22
998.312	39.22
998.603	63.22
998.894	29.22
999.184	15.22
999.475	25.22
999.766	16.22
1000.056	7.22
1000.347	20.22
1000.637	15.22
1000.928	31.22
1001.218	21.22
1001.508	20.22
1001.799	24.22
1002.089	27.22
1002.379	29.22
1002.669	25.22
1002.959	13.22
1003.249	23.22
1003.539	25.22
1003.829	17.22
1004.119	13.22
1004.409	8.22
1004.698	3.22
1004.988	12.22
1005.278	58.22
1005.567	20.22
1005.857	18.22
1006.146	28.22
1006.436	10.22
1006.725	11.22
1007.014	12.22
1007.303	4.22
1007.593	9.22
1007.882	32.22
1008.171	28.22
1008.46	24.22
1008.749	25.22
1009.038	21.22
1009.327	7.22
1009.615	20.22
1009.904	12.22
1010.193	5.22
1010.482	10.22
1010.77	30.22
1011.059	15.22
1011.347	21.22
1011.636	17.22
1011.924	18.22
1012.212	15.22
1012.501	13.22
1012.789	16.22
1013.077	34.22
1013.365	12.22
1013.653	16.22
1013.941	23.22
1014.229	20.22
1014.517	12.22
1014.805	8.22
1015.093	15.22
1015.38	6.22
1015.668	11.22
1015.956	8.22
1016.243	15.22
1016.531	10.22
1016.818	22.22
1017.106	29.22
1017.393	23.22
1017.68	5.22
1017.968	18.22
1018.255	77.22
1018.542	19.22
1018.829	50.22
1019.116	23.22
1019.403	28.22
1019.69	13.22
1019.977	19.22
1020.264	11.22
1020.551	26.22
1020.837	15.22
1021.124	18.22
1021.411	30.22
1021.697	29.22
1021.984	7.22
1022.27	29.22
1022.557	15.22
1022.843	5.22
1023.129	10.22
1023.415	23.22
1023.702	21.22
1023.988	24.22
1024.274	19.22
1024.56	16.22
1024.846	9.22
1025.132	27.22
1025.418	11.22
1025.703	21.22
1025.989	47.22
1026.275	25.22
1026.56	23.22
1026.846	12.22
1027.132	7.22
1027.417	11.22
1027.703	23.22
1027.988	21.22
1028.273	40.22
1028.558	19.22
1028.844	28.22
