Data from USB2G147421__70__13-08-53-700.txt Node

Date: Tue Jun 28 13:08:53 UTC 2022
User: yes
Spectrometer: USB2G14742
Trigger mode: 4
Integration Time (sec): 2.000000E0
Scans to average: 1
Electric dark correction enabled: true
Nonlinearity correction enabled: false
Boxcar width: 0
XAxis mode: Wavelengths
Number of Pixels in Spectrum: 2048
>>>>>Begin Spectral Data<<<<<
339.471	-154.17
339.856	-4.17
340.241	-0.17
340.625	-2.17
341.01	-4.17
341.395	34.83
341.779	13.83
342.163	9.83
342.548	11.83
342.932	15.83
343.317	1.83
343.701	7.83
344.085	13.83
344.469	7.83
344.853	2.83
345.238	1.83
345.622	12.83
346.006	29.83
346.39	2.83
346.774	14.83
347.157	10.83
347.541	9.83
347.925	2.83
348.309	8.83
348.693	27.83
349.076	6.83
349.46	21.83
349.843	12.83
350.227	11.83
350.61	57.83
350.994	17.83
351.377	9.83
351.761	28.83
352.144	22.83
352.527	7.83
352.91	12.83
353.294	10.83
353.677	17.83
354.06	15.83
354.443	89.83
354.826	6.83
355.209	2.83
355.592	5.83
355.975	9.83
356.358	18.83
356.74	12.83
357.123	13.83
357.506	7.83
357.889	11.83
358.271	14.83
358.654	3.83
359.036	10.83
359.419	5.83
359.801	8.83
360.184	9.83
360.566	10.83
360.948	29.83
361.331	14.83
361.713	5.83
362.095	18.83
362.477	5.83
362.859	6.83
363.241	15.83
363.623	8.83
364.005	15.83
364.387	16.83
364.769	6.83
365.151	15.83
365.533	31.83
365.915	25.83
366.296	5.83
366.678	53.83
367.06	8.83
367.441	9.83
367.823	26.83
368.204	10.83
368.586	12.83
368.967	15.83
369.348	21.83
369.73	19.83
370.111	13.83
370.492	7.83
370.873	11.83
371.255	37.83
371.636	14.83
372.017	17.83
372.398	19.83
372.779	20.83
373.16	13.83
373.54	7.83
373.921	10.83
374.302	3.83
374.683	14.83
375.064	12.83
375.444	5.83
375.825	12.83
376.205	13.83
376.586	18.83
376.966	12.83
377.347	15.83
377.727	9.83
378.108	7.83
378.488	10.83
378.868	4.83
379.248	15.83
379.629	8.83
380.009	33.83
380.389	12.83
380.769	20.83
381.149	11.83
381.529	23.83
381.909	23.83
382.289	10.83
382.668	88.83
383.048	9.83
383.428	7.83
383.808	9.83
384.187	9.83
384.567	12.83
384.946	6.83
385.326	15.83
385.705	18.83
386.085	8.83
386.464	24.83
386.844	17.83
387.223	13.83
387.602	9.83
387.981	13.83
388.361	9.83
388.74	17.83
389.119	3.83
389.498	14.83
389.877	12.83
390.256	8.83
390.635	15.83
391.013	18.83
391.392	9.83
391.771	43.83
392.15	17.83
392.528	13.83
392.907	0.83
393.286	16.83
393.664	15.83
394.043	7.83
394.421	15.83
394.8	12.83
395.178	6.83
395.556	20.83
395.935	9.83
396.313	13.83
396.691	17.83
397.069	5.83
397.447	9.83
397.825	14.83
398.203	9.83
398.581	22.83
398.959	12.83
399.337	15.83
399.715	75.83
400.093	10.83
400.471	10.83
400.848	6.83
401.226	16.83
401.604	9.83
401.981	12.83
402.359	11.83
402.736	11.83
403.114	35.83
403.491	18.83
403.868	20.83
404.246	52.83
404.623	26.83
405	17.83
405.377	9.83
405.755	22.83
406.132	6.83
406.509	6.83
406.886	14.83
407.263	22.83
407.64	3.83
408.017	12.83
408.393	12.83
408.77	17.83
409.147	11.83
409.524	12.83
409.9	8.83
410.277	14.83
410.653	14.83
411.03	18.83
411.406	8.83
411.783	41.83
412.159	12.83
412.536	18.83
412.912	8.83
413.288	23.83
413.664	5.83
414.04	4.83
414.417	16.83
414.793	9.83
415.169	14.83
415.545	25.83
415.921	13.83
416.297	30.83
416.672	7.83
417.048	10.83
417.424	9.83
417.8	46.83
418.175	13.83
418.551	4.83
418.927	5.83
419.302	62.83
419.678	19.83
420.053	5.83
420.429	16.83
420.804	14.83
421.179	11.83
421.554	15.83
421.93	9.83
422.305	62.83
422.68	14.83
423.055	16.83
423.43	16.83
423.805	16.83
424.18	4.83
424.555	15.83
424.93	11.83
425.305	5.83
425.68	10.83
426.054	11.83
426.429	18.83
426.804	20.83
427.178	24.83
427.553	8.83
427.927	65.83
428.302	9.83
428.676	9.83
429.051	13.83
429.425	3.83
429.799	19.83
430.174	10.83
430.548	10.83
430.922	23.83
431.296	10.83
431.67	22.83
432.044	18.83
432.418	9.83
432.792	5.83
433.166	10.83
433.54	21.83
433.914	28.83
434.287	16.83
434.661	9.83
435.035	16.83
435.408	15.83
435.782	19.83
436.156	16.83
436.529	54.83
436.903	10.83
437.276	8.83
437.649	29.83
438.023	55.83
438.396	12.83
438.769	18.83
439.142	17.83
439.515	24.83
439.889	18.83
440.262	21.83
440.635	29.83
441.008	22.83
441.38	20.83
441.753	15.83
442.126	14.83
442.499	10.83
442.872	78.83
443.244	59.83
443.617	8.83
443.99	28.83
444.362	24.83
444.735	8.83
445.107	21.83
445.48	50.83
445.852	8.83
446.224	22.83
446.597	17.83
446.969	18.83
447.341	35.83
447.713	28.83
448.085	14.83
448.457	21.83
448.829	13.83
449.201	30.83
449.573	23.83
449.945	23.83
450.317	14.83
450.689	22.83
451.061	19.83
451.432	15.83
451.804	27.83
452.176	41.83
452.547	18.83
452.919	23.83
453.29	23.83
453.662	24.83
454.033	18.83
454.404	28.83
454.776	16.83
455.147	18.83
455.518	23.83
455.889	22.83
456.26	20.83
456.631	25.83
457.002	24.83
457.373	22.83
457.744	36.83
458.115	19.83
458.486	24.83
458.857	18.83
459.228	26.83
459.598	17.83
459.969	14.83
460.34	34.83
460.71	16.83
461.081	18.83
461.451	33.83
461.822	23.83
462.192	18.83
462.563	7.83
462.933	22.83
463.303	22.83
463.673	33.83
464.044	21.83
464.414	25.83
464.784	20.83
465.154	15.83
465.524	18.83
465.894	18.83
466.264	15.83
466.634	19.83
467.003	17.83
467.373	15.83
467.743	28.83
468.113	33.83
468.482	22.83
468.852	25.83
469.221	26.83
469.591	23.83
469.96	37.83
470.33	8.83
470.699	73.83
471.068	16.83
471.438	22.83
471.807	26.83
472.176	33.83
472.545	41.83
472.914	12.83
473.283	21.83
473.652	20.83
474.021	35.83
474.39	22.83
474.759	27.83
475.128	15.83
475.497	9.83
475.865	7.83
476.234	24.83
476.603	8.83
476.971	13.83
477.34	14.83
477.708	29.83
478.077	19.83
478.445	16.83
478.814	15.83
479.182	22.83
479.55	19.83
479.919	10.83
480.287	13.83
480.655	27.83
481.023	5.83
481.391	21.83
481.759	16.83
482.127	20.83
482.495	16.83
482.863	20.83
483.231	11.83
483.598	23.83
483.966	26.83
484.334	24.83
484.701	29.83
485.069	21.83
485.437	43.83
485.804	16.83
486.172	16.83
486.539	23.83
486.906	18.83
487.274	25.83
487.641	22.83
488.008	29.83
488.375	39.83
488.743	25.83
489.11	16.83
489.477	14.83
489.844	17.83
490.211	21.83
490.578	17.83
490.945	25.83
491.311	24.83
491.678	23.83
492.045	41.83
492.412	13.83
492.778	24.83
493.145	31.83
493.511	23.83
493.878	25.83
494.244	22.83
494.611	29.83
494.977	20.83
495.344	23.83
495.71	65.83
496.076	17.83
496.442	35.83
496.808	15.83
497.175	26.83
497.541	16.83
497.907	27.83
498.273	45.83
498.638	43.83
499.004	21.83
499.37	28.83
499.736	59.83
500.102	21.83
500.467	34.83
500.833	21.83
501.199	42.83
501.564	31.83
501.93	22.83
502.295	37.83
502.661	28.83
503.026	29.83
503.391	21.83
503.757	28.83
504.122	20.83
504.487	28.83
504.852	46.83
505.217	31.83
505.582	23.83
505.947	30.83
506.312	32.83
506.677	34.83
507.042	29.83
507.407	42.83
507.772	54.83
508.136	50.83
508.501	41.83
508.866	32.83
509.23	52.83
509.595	43.83
509.959	37.83
510.324	27.83
510.688	49.83
511.053	42.83
511.417	91.83
511.781	33.83
512.146	30.83
512.51	56.83
512.874	78.83
513.238	35.83
513.602	34.83
513.966	44.83
514.33	46.83
514.694	29.83
515.058	34.83
515.422	56.83
515.785	54.83
516.149	41.83
516.513	57.83
516.876	38.83
517.24	43.83
517.604	39.83
517.967	46.83
518.331	37.83
518.694	42.83
519.057	44.83
519.421	47.83
519.784	51.83
520.147	63.83
520.51	64.83
520.873	38.83
521.237	46.83
521.6	48.83
521.963	41.83
522.326	50.83
522.688	46.83
523.051	50.83
523.414	52.83
523.777	120.83
524.14	44.83
524.502	52.83
524.865	50.83
525.228	52.83
525.59	51.83
525.953	59.83
526.315	50.83
526.677	49.83
527.04	82.83
527.402	55.83
527.764	52.83
528.127	43.83
528.489	55.83
528.851	54.83
529.213	51.83
529.575	50.83
529.937	69.83
530.299	46.83
530.661	59.83
531.023	57.83
531.384	50.83
531.746	54.83
532.108	52.83
532.47	51.83
532.831	52.83
533.193	46.83
533.554	60.83
533.916	54.83
534.277	62.83
534.639	49.83
535	56.83
535.361	61.83
535.723	73.83
536.084	63.83
536.445	76.83
536.806	123.83
537.167	99.83
537.528	63.83
537.889	84.83
538.25	65.83
538.611	69.83
538.972	64.83
539.333	58.83
539.693	80.83
540.054	107.83
540.415	63.83
540.775	57.83
541.136	65.83
541.496	57.83
541.857	80.83
542.217	66.83
542.578	72.83
542.938	85.83
543.298	68.83
543.658	72.83
544.019	77.83
544.379	72.83
544.739	76.83
545.099	72.83
545.459	71.83
545.819	70.83
546.179	67.83
546.539	100.83
546.899	75.83
547.258	84.83
547.618	72.83
547.978	86.83
548.337	88.83
548.697	72.83
549.056	96.83
549.416	81.83
549.775	72.83
550.135	85.83
550.494	77.83
550.854	95.83
551.213	81.83
551.572	84.83
551.931	77.83
552.29	77.83
552.649	86.83
553.008	79.83
553.367	116.83
553.726	99.83
554.085	80.83
554.444	183.83
554.803	74.83
555.162	93.83
555.52	81.83
555.879	87.83
556.238	85.83
556.596	78.83
556.955	93.83
557.313	96.83
557.672	93.83
558.03	80.83
558.388	89.83
558.747	106.83
559.105	84.83
559.463	87.83
559.821	80.83
560.179	91.83
560.537	85.83
560.896	85.83
561.253	82.83
561.611	82.83
561.969	86.83
562.327	91.83
562.685	95.83
563.043	86.83
563.4	89.83
563.758	97.83
564.116	100.83
564.473	86.83
564.831	87.83
565.188	90.83
565.546	126.83
565.903	100.83
566.26	91.83
566.617	107.83
566.975	116.83
567.332	98.83
567.689	91.83
568.046	96.83
568.403	110.83
568.76	97.83
569.117	105.83
569.474	97.83
569.831	95.83
570.188	104.83
570.544	103.83
570.901	103.83
571.258	132.83
571.614	98.83
571.971	110.83
572.328	90.83
572.684	96.83
573.04	116.83
573.397	97.83
573.753	113.83
574.109	107.83
574.466	107.83
574.822	101.83
575.178	112.83
575.534	95.83
575.89	119.83
576.246	103.83
576.602	105.83
576.958	114.83
577.314	105.83
577.67	97.83
578.026	104.83
578.381	112.83
578.737	100.83
579.093	110.83
579.448	117.83
579.804	138.83
580.159	114.83
580.515	96.83
580.87	112.83
581.226	104.83
581.581	124.83
581.936	118.83
582.291	101.83
582.647	103.83
583.002	121.83
583.357	106.83
583.712	114.83
584.067	103.83
584.422	111.83
584.777	108.83
585.131	104.83
585.486	105.83
585.841	105.83
586.196	125.83
586.55	103.83
586.905	99.83
587.26	107.83
587.614	91.83
587.969	126.83
588.323	116.83
588.677	118.83
589.032	110.83
589.386	119.83
589.74	139.83
590.094	117.83
590.449	124.83
590.803	139.83
591.157	99.83
591.511	130.83
591.865	122.83
592.219	123.83
592.573	101.83
592.926	98.83
593.28	100.83
593.634	137.83
593.988	105.83
594.341	99.83
594.695	111.83
595.048	97.83
595.402	91.83
595.755	99.83
596.109	121.83
596.462	113.83
596.815	104.83
597.169	121.83
597.522	106.83
597.875	145.83
598.228	107.83
598.581	103.83
598.934	136.83
599.287	95.83
599.64	114.83
599.993	104.83
600.346	103.83
600.698	102.83
601.051	99.83
601.404	105.83
601.757	99.83
602.109	113.83
602.462	101.83
602.814	86.83
603.167	104.83
603.519	97.83
603.871	107.83
604.224	104.83
604.576	96.83
604.928	123.83
605.28	105.83
605.633	97.83
605.985	105.83
606.337	93.83
606.689	83.83
607.041	118.83
607.392	93.83
607.744	99.83
608.096	87.83
608.448	95.83
608.8	91.83
609.151	88.83
609.503	89.83
609.854	97.83
610.206	125.83
610.557	97.83
610.909	86.83
611.26	98.83
611.612	89.83
611.963	77.83
612.314	100.83
612.665	83.83
613.016	86.83
613.367	83.83
613.719	105.83
614.07	85.83
614.42	77.83
614.771	76.83
615.122	93.83
615.473	80.83
615.824	84.83
616.174	93.83
616.525	78.83
616.876	71.83
617.226	81.83
617.577	72.83
617.927	75.83
618.278	70.83
618.628	140.83
618.979	88.83
619.329	77.83
619.679	93.83
620.029	86.83
620.379	73.83
620.729	96.83
621.08	85.83
621.43	91.83
621.779	97.83
622.129	74.83
622.479	85.83
622.829	74.83
623.179	70.83
623.529	67.83
623.878	74.83
624.228	73.83
624.577	61.83
624.927	65.83
625.276	64.83
625.626	75.83
625.975	83.83
626.325	65.83
626.674	119.83
627.023	64.83
627.372	66.83
627.722	89.83
628.071	91.83
628.42	72.83
628.769	111.83
629.118	73.83
629.467	72.83
629.815	76.83
630.164	57.83
630.513	76.83
630.862	101.83
631.21	72.83
631.559	55.83
631.908	62.83
632.256	59.83
632.605	59.83
632.953	62.83
633.302	59.83
633.65	70.83
633.998	127.83
634.346	71.83
634.695	56.83
635.043	55.83
635.391	81.83
635.739	48.83
636.087	60.83
636.435	69.83
636.783	61.83
637.131	52.83
637.479	62.83
637.826	52.83
638.174	46.83
638.522	55.83
638.869	93.83
639.217	46.83
639.564	59.83
639.912	52.83
640.259	55.83
640.607	53.83
640.954	62.83
641.301	56.83
641.649	49.83
641.996	48.83
642.343	61.83
642.69	54.83
643.037	62.83
643.384	76.83
643.731	46.83
644.078	75.83
644.425	48.83
644.772	53.83
645.119	49.83
645.465	45.83
645.812	46.83
646.159	55.83
646.505	59.83
646.852	64.83
647.198	40.83
647.545	50.83
647.891	56.83
648.237	54.83
648.584	59.83
648.93	47.83
649.276	52.83
649.622	56.83
649.969	64.83
650.315	53.83
650.661	51.83
651.007	50.83
651.352	60.83
651.698	33.83
652.044	42.83
652.39	53.83
652.736	43.83
653.081	40.83
653.427	43.83
653.773	48.83
654.118	43.83
654.464	30.83
654.809	45.83
655.154	37.83
655.5	39.83
655.845	39.83
656.19	37.83
656.536	36.83
656.881	44.83
657.226	30.83
657.571	95.83
657.916	37.83
658.261	28.83
658.606	40.83
658.951	28.83
659.295	27.83
659.64	27.83
659.985	26.83
660.33	28.83
660.674	35.83
661.019	39.83
661.363	36.83
661.708	32.83
662.052	18.83
662.397	25.83
662.741	28.83
663.085	36.83
663.429	47.83
663.774	68.83
664.118	21.83
664.462	25.83
664.806	26.83
665.15	45.83
665.494	21.83
665.838	25.83
666.182	31.83
666.526	36.83
666.869	22.83
667.213	26.83
667.557	26.83
667.9	36.83
668.244	36.83
668.587	36.83
668.931	21.83
669.274	25.83
669.618	21.83
669.961	32.83
670.304	20.83
670.648	26.83
670.991	21.83
671.334	20.83
671.677	15.83
672.02	19.83
672.363	16.83
672.706	18.83
673.049	33.83
673.392	20.83
673.735	27.83
674.077	20.83
674.42	20.83
674.763	20.83
675.105	26.83
675.448	35.83
675.79	18.83
676.133	25.83
676.475	19.83
676.818	16.83
677.16	17.83
677.502	24.83
677.844	45.83
678.187	12.83
678.529	44.83
678.871	38.83
679.213	21.83
679.555	28.83
679.897	26.83
680.239	27.83
680.58	23.83
680.922	26.83
681.264	33.83
681.606	27.83
681.947	24.83
682.289	22.83
682.631	60.83
682.972	16.83
683.313	19.83
683.655	24.83
683.996	14.83
684.338	21.83
684.679	16.83
685.02	17.83
685.361	23.83
685.702	24.83
686.043	24.83
686.384	18.83
686.725	17.83
687.066	31.83
687.407	19.83
687.748	20.83
688.089	40.83
688.43	17.83
688.77	57.83
689.111	23.83
689.451	26.83
689.792	28.83
690.132	22.83
690.473	20.83
690.813	18.83
691.154	27.83
691.494	22.83
691.834	29.83
692.174	20.83
692.515	16.83
692.855	22.83
693.195	25.83
693.535	30.83
693.875	18.83
694.215	21.83
694.554	25.83
694.894	22.83
695.234	26.83
695.574	23.83
695.913	29.83
696.253	23.83
696.593	30.83
696.932	28.83
697.272	25.83
697.611	16.83
697.95	31.83
698.29	18.83
698.629	26.83
698.968	20.83
699.307	20.83
699.647	30.83
699.986	32.83
700.325	32.83
700.664	16.83
701.003	18.83
701.341	15.83
701.68	15.83
702.019	13.83
702.358	18.83
702.697	28.83
703.035	22.83
703.374	21.83
703.712	34.83
704.051	14.83
704.389	17.83
704.728	11.83
705.066	15.83
705.404	22.83
705.743	21.83
706.081	16.83
706.419	8.83
706.757	18.83
707.095	35.83
707.433	25.83
707.771	21.83
708.109	13.83
708.447	20.83
708.785	28.83
709.123	24.83
709.46	22.83
709.798	13.83
710.136	27.83
710.473	22.83
710.811	28.83
711.148	26.83
711.486	19.83
711.823	13.83
712.16	17.83
712.498	20.83
712.835	29.83
713.172	22.83
713.509	26.83
713.846	71.83
714.183	33.83
714.52	10.83
714.857	9.83
715.194	18.83
715.531	16.83
715.868	29.83
716.205	17.83
716.541	26.83
716.878	35.83
717.215	21.83
717.551	29.83
717.888	21.83
718.224	74.83
718.561	22.83
718.897	17.83
719.233	12.83
719.57	17.83
719.906	9.83
720.242	10.83
720.578	11.83
720.914	15.83
721.25	16.83
721.586	7.83
721.922	13.83
722.258	27.83
722.594	10.83
722.929	22.83
723.265	17.83
723.601	23.83
723.937	35.83
724.272	9.83
724.608	23.83
724.943	15.83
725.279	9.83
725.614	9.83
725.949	17.83
726.285	19.83
726.62	39.83
726.955	8.83
727.29	11.83
727.625	8.83
727.96	21.83
728.295	33.83
728.63	14.83
728.965	8.83
729.3	13.83
729.635	67.83
729.97	18.83
730.304	9.83
730.639	18.83
730.974	13.83
731.308	28.83
731.643	6.83
731.977	25.83
732.311	27.83
732.646	14.83
732.98	17.83
733.314	5.83
733.649	24.83
733.983	22.83
734.317	44.83
734.651	15.83
734.985	12.83
735.319	8.83
735.653	12.83
735.987	28.83
736.321	29.83
736.654	6.83
736.988	25.83
737.322	31.83
737.655	19.83
737.989	23.83
738.322	17.83
738.656	6.83
738.989	20.83
739.323	13.83
739.656	23.83
739.989	32.83
740.323	13.83
740.656	9.83
740.989	14.83
741.322	11.83
741.655	18.83
741.988	30.83
742.321	27.83
742.654	13.83
742.987	13.83
743.319	11.83
743.652	24.83
743.985	22.83
744.317	12.83
744.65	11.83
744.983	20.83
745.315	13.83
745.648	16.83
745.98	13.83
746.312	13.83
746.645	12.83
746.977	26.83
747.309	17.83
747.641	10.83
747.973	22.83
748.305	6.83
748.637	7.83
748.969	11.83
749.301	22.83
749.633	9.83
749.965	7.83
750.297	16.83
750.628	23.83
750.96	24.83
751.292	32.83
751.623	16.83
751.955	17.83
752.286	21.83
752.618	8.83
752.949	5.83
753.28	22.83
753.611	3.83
753.943	11.83
754.274	20.83
754.605	15.83
754.936	12.83
755.267	10.83
755.598	19.83
755.929	10.83
756.26	15.83
756.591	135.83
756.921	11.83
757.252	12.83
757.583	13.83
757.913	16.83
758.244	9.83
758.574	16.83
758.905	6.83
759.235	22.83
759.566	6.83
759.896	29.83
760.226	19.83
760.557	4.83
760.887	8.83
761.217	17.83
761.547	24.83
761.877	14.83
762.207	28.83
762.537	12.83
762.867	11.83
763.197	40.83
763.526	11.83
763.856	23.83
764.186	14.83
764.515	7.83
764.845	5.83
765.175	14.83
765.504	16.83
765.833	6.83
766.163	12.83
766.492	11.83
766.821	12.83
767.151	21.83
767.48	11.83
767.809	20.83
768.138	18.83
768.467	10.83
768.796	15.83
769.125	6.83
769.454	8.83
769.783	15.83
770.112	9.83
770.44	17.83
770.769	7.83
771.098	24.83
771.426	15.83
771.755	6.83
772.083	11.83
772.412	14.83
772.74	11.83
773.069	77.83
773.397	19.83
773.725	2.83
774.053	42.83
774.381	27.83
774.71	24.83
775.038	5.83
775.366	7.83
775.693	9.83
776.021	12.83
776.349	6.83
776.677	11.83
777.005	8.83
777.332	11.83
777.66	6.83
777.988	8.83
778.315	22.83
778.643	19.83
778.97	7.83
779.298	6.83
779.625	7.83
779.952	14.83
780.28	17.83
780.607	14.83
780.934	19.83
781.261	14.83
781.588	13.83
781.915	18.83
782.242	19.83
782.569	33.83
782.896	18.83
783.223	16.83
783.549	21.83
783.876	13.83
784.203	1.83
784.529	34.83
784.856	18.83
785.182	16.83
785.509	24.83
785.835	20.83
786.162	15.83
786.488	16.83
786.814	2.83
787.14	17.83
787.466	16.83
787.793	19.83
788.119	9.83
788.445	9.83
788.771	23.83
789.097	8.83
789.422	9.83
789.748	5.83
790.074	9.83
790.4	32.83
790.725	11.83
791.051	79.83
791.376	12.83
791.702	10.83
792.027	17.83
792.353	15.83
792.678	19.83
793.004	27.83
793.329	21.83
793.654	10.83
793.979	14.83
794.304	6.83
794.629	16.83
794.954	9.83
795.279	9.83
795.604	20.83
795.929	17.83
796.254	6.83
796.579	2.83
796.903	76.83
797.228	7.83
797.553	28.83
797.877	9.83
798.202	28.83
798.526	12.83
798.851	13.83
799.175	19.83
799.499	11.83
799.823	7.83
800.148	7.83
800.472	2.83
800.796	3.83
801.12	21.83
801.444	14.83
801.768	11.83
802.092	16.83
802.416	10.83
802.74	19.83
803.063	12.83
803.387	16.83
803.711	93.83
804.034	19.83
804.358	14.83
804.681	20.83
805.005	22.83
805.328	16.83
805.652	1.83
805.975	7.83
806.298	20.83
806.621	14.83
806.944	23.83
807.268	21.83
807.591	26.83
807.914	12.83
808.237	15.83
808.56	17.83
808.882	19.83
809.205	24.83
809.528	2.83
809.851	9.83
810.173	12.83
810.496	91.83
810.818	51.83
811.141	5.83
811.463	30.83
811.786	56.83
812.108	10.83
812.43	17.83
812.753	18.83
813.075	26.83
813.397	20.83
813.719	24.83
814.041	10.83
814.363	11.83
814.685	7.83
815.007	15.83
815.329	18.83
815.651	17.83
815.972	12.83
816.294	25.83
816.616	10.83
816.937	6.83
817.259	13.83
817.58	21.83
817.902	2.83
818.223	18.83
818.545	16.83
818.866	22.83
819.187	9.83
819.508	29.83
819.83	21.83
820.151	34.83
820.472	8.83
820.793	20.83
821.114	18.83
821.435	17.83
821.755	3.83
822.076	17.83
822.397	12.83
822.718	51.83
823.038	14.83
823.359	27.83
823.679	16.83
824	31.83
824.32	10.83
824.641	15.83
824.961	16.83
825.281	21.83
825.602	17.83
825.922	3.83
826.242	18.83
826.562	29.83
826.882	11.83
827.202	26.83
827.522	46.83
827.842	17.83
828.162	3.83
828.481	9.83
828.801	16.83
829.121	32.83
829.441	26.83
829.76	23.83
830.08	13.83
830.399	5.83
830.719	14.83
831.038	6.83
831.357	10.83
831.677	16.83
831.996	26.83
832.315	14.83
832.634	9.83
832.953	6.83
833.272	11.83
833.591	9.83
833.91	7.83
834.229	10.83
834.548	19.83
834.867	14.83
835.185	16.83
835.504	36.83
835.823	76.83
836.141	13.83
836.46	19.83
836.778	13.83
837.097	12.83
837.415	1.83
837.733	11.83
838.051	5.83
838.37	15.83
838.688	13.83
839.006	6.83
839.324	9.83
839.642	21.83
839.96	11.83
840.278	26.83
840.596	17.83
840.914	18.83
841.231	33.83
841.549	29.83
841.867	1.83
842.184	16.83
842.502	28.83
842.819	13.83
843.137	26.83
843.454	8.83
843.772	16.83
844.089	19.83
844.406	53.83
844.723	16.83
845.041	11.83
845.358	12.83
845.675	8.83
845.992	7.83
846.309	17.83
846.626	25.83
846.942	24.83
847.259	10.83
847.576	11.83
847.893	11.83
848.209	8.83
848.526	11.83
848.842	48.83
849.159	12.83
849.475	16.83
849.792	13.83
850.108	19.83
850.424	9.83
850.741	31.83
851.057	13.83
851.373	13.83
851.689	17.83
852.005	21.83
852.321	16.83
852.637	15.83
852.953	12.83
853.269	18.83
853.584	4.83
853.9	7.83
854.216	7.83
854.531	2.83
854.847	15.83
855.163	15.83
855.478	14.83
855.793	12.83
856.109	11.83
856.424	9.83
856.739	3.83
857.055	22.83
857.37	21.83
857.685	18.83
858	22.83
858.315	36.83
858.63	10.83
858.945	16.83
859.26	19.83
859.574	26.83
859.889	13.83
860.204	5.83
860.519	20.83
860.833	11.83
861.148	6.83
861.462	24.83
861.777	5.83
862.091	33.83
862.405	9.83
862.72	17.83
863.034	20.83
863.348	33.83
863.662	9.83
863.976	29.83
864.291	59.83
864.605	17.83
864.918	16.83
865.232	9.83
865.546	22.83
865.86	34.83
866.174	7.83
866.487	15.83
866.801	21.83
867.115	7.83
867.428	11.83
867.742	15.83
868.055	7.83
868.368	10.83
868.682	8.83
868.995	41.83
869.308	17.83
869.621	22.83
869.935	9.83
870.248	19.83
870.561	17.83
870.874	18.83
871.187	22.83
871.499	18.83
871.812	1.83
872.125	19.83
872.438	25.83
872.75	3.83
873.063	13.83
873.376	9.83
873.688	13.83
874.001	11.83
874.313	11.83
874.625	72.83
874.938	8.83
875.25	6.83
875.562	19.83
875.874	13.83
876.186	2.83
876.498	33.83
876.81	26.83
877.122	37.83
877.434	34.83
877.746	24.83
878.058	28.83
878.37	13.83
878.681	10.83
878.993	7.83
879.304	19.83
879.616	1.83
879.927	12.83
880.239	35.83
880.55	14.83
880.862	11.83
881.173	18.83
881.484	9.83
881.795	9.83
882.106	69.83
882.417	23.83
882.729	9.83
883.039	21.83
883.35	18.83
883.661	21.83
883.972	20.83
884.283	16.83
884.594	26.83
884.904	23.83
885.215	72.83
885.525	27.83
885.836	-0.17
886.146	36.83
886.457	21.83
886.767	25.83
887.077	5.83
887.388	17.83
887.698	8.83
888.008	8.83
888.318	1.83
888.628	19.83
888.938	38.83
889.248	22.83
889.558	15.83
889.868	5.83
890.178	5.83
890.487	5.83
890.797	50.83
891.107	26.83
891.416	16.83
891.726	7.83
892.035	14.83
892.345	9.83
892.654	8.83
892.963	31.83
893.273	21.83
893.582	24.83
893.891	8.83
894.2	15.83
894.509	5.83
894.818	3.83
895.127	26.83
895.436	17.83
895.745	11.83
896.054	11.83
896.362	19.83
896.671	14.83
896.98	24.83
897.288	6.83
897.597	14.83
897.905	0.83
898.214	18.83
898.522	15.83
898.831	4.83
899.139	9.83
899.447	13.83
899.755	15.83
900.063	13.83
900.372	129.83
900.68	3.83
900.988	3.83
901.296	27.83
901.603	18.83
901.911	4.83
902.219	11.83
902.527	12.83
902.834	10.83
903.142	16.83
903.45	12.83
903.757	11.83
904.065	25.83
904.372	26.83
904.679	12.83
904.987	7.83
905.294	16.83
905.601	21.83
905.908	9.83
906.215	22.83
906.522	77.83
906.829	17.83
907.136	16.83
907.443	4.83
907.75	12.83
908.057	63.83
908.364	25.83
908.67	30.83
908.977	11.83
909.283	12.83
909.59	5.83
909.896	15.83
910.203	10.83
910.509	14.83
910.816	8.83
911.122	15.83
911.428	15.83
911.734	22.83
912.04	25.83
912.346	24.83
912.652	24.83
912.958	31.83
913.264	15.83
913.57	13.83
913.876	10.83
914.182	-0.17
914.487	20.83
914.793	12.83
915.099	4.83
915.404	21.83
915.71	13.83
916.015	29.83
916.321	6.83
916.626	16.83
916.931	8.83
917.236	12.83
917.542	5.83
917.847	17.83
918.152	11.83
918.457	10.83
918.762	14.83
919.067	20.83
919.372	6.83
919.676	4.83
919.981	20.83
920.286	11.83
920.59	13.83
920.895	17.83
921.2	61.83
921.504	28.83
921.809	76.83
922.113	25.83
922.417	1.83
922.722	21.83
923.026	9.83
923.33	107.83
923.634	14.83
923.938	19.83
924.242	13.83
924.546	2.83
924.85	22.83
925.154	6.83
925.458	18.83
925.762	3.83
926.065	5.83
926.369	13.83
926.673	11.83
926.976	66.83
927.28	17.83
927.583	9.83
927.887	17.83
928.19	64.83
928.493	12.83
928.797	14.83
929.1	16.83
929.403	8.83
929.706	1.83
930.009	8.83
930.312	52.83
930.615	22.83
930.918	34.83
931.221	30.83
931.524	11.83
931.826	9.83
932.129	18.83
932.432	2.83
932.734	40.83
933.037	12.83
933.339	25.83
933.642	19.83
933.944	13.83
934.246	12.83
934.548	29.83
934.851	8.83
935.153	7.83
935.455	11.83
935.757	13.83
936.059	5.83
936.361	17.83
936.663	43.83
936.965	3.83
937.266	22.83
937.568	17.83
937.87	6.83
938.172	9.83
938.473	20.83
938.775	16.83
939.076	30.83
939.378	19.83
939.679	17.83
939.98	24.83
940.281	18.83
940.583	6.83
940.884	13.83
941.185	36.83
941.486	14.83
941.787	21.83
942.088	16.83
942.389	20.83
942.69	18.83
942.991	4.83
943.291	15.83
943.592	39.83
943.893	18.83
944.193	22.83
944.494	17.83
944.794	10.83
945.095	36.83
945.395	15.83
945.695	13.83
945.996	35.83
946.296	9.83
946.596	18.83
946.896	11.83
947.196	20.83
947.496	22.83
947.796	19.83
948.096	14.83
948.396	17.83
948.696	18.83
948.995	10.83
949.295	12.83
949.595	19.83
949.894	27.83
950.194	63.83
950.493	24.83
950.793	37.83
951.092	20.83
951.391	21.83
951.691	16.83
951.99	18.83
952.289	17.83
952.588	14.83
952.887	15.83
953.186	9.83
953.485	20.83
953.784	7.83
954.083	19.83
954.382	4.83
954.681	50.83
954.979	13.83
955.278	12.83
955.576	24.83
955.875	9.83
956.174	31.83
956.472	8.83
956.77	14.83
957.069	3.83
957.367	9.83
957.665	5.83
957.963	27.83
958.261	0.83
958.559	20.83
958.857	66.83
959.155	18.83
959.453	14.83
959.751	16.83
960.049	48.83
960.347	18.83
960.644	14.83
960.942	16.83
961.24	22.83
961.537	20.83
961.835	8.83
962.132	12.83
962.429	57.83
962.727	27.83
963.024	16.83
963.321	11.83
963.618	55.83
963.916	28.83
964.213	69.83
964.51	16.83
964.807	9.83
965.104	13.83
965.4	18.83
965.697	21.83
965.994	19.83
966.291	71.83
966.587	42.83
966.884	17.83
967.18	13.83
967.477	17.83
967.773	20.83
968.07	24.83
968.366	22.83
968.662	10.83
968.958	4.83
969.255	7.83
969.551	11.83
969.847	10.83
970.143	11.83
970.439	19.83
970.735	13.83
971.03	11.83
971.326	18.83
971.622	12.83
971.918	10.83
972.213	3.83
972.509	22.83
972.804	14.83
973.1	6.83
973.395	23.83
973.691	8.83
973.986	13.83
974.281	51.83
974.576	17.83
974.872	18.83
975.167	6.83
975.462	17.83
975.757	19.83
976.052	14.83
976.347	21.83
976.641	22.83
976.936	18.83
977.231	11.83
977.526	20.83
977.82	17.83
978.115	15.83
978.409	15.83
978.704	13.83
978.998	28.83
979.293	17.83
979.587	26.83
979.881	23.83
980.175	28.83
980.469	7.83
980.764	17.83
981.058	14.83
981.352	12.83
981.646	16.83
981.939	35.83
982.233	19.83
982.527	60.83
982.821	62.83
983.114	26.83
983.408	6.83
983.702	29.83
983.995	17.83
984.289	17.83
984.582	11.83
984.875	9.83
985.169	71.83
985.462	6.83
985.755	25.83
986.048	22.83
986.341	32.83
986.634	22.83
986.927	13.83
987.22	17.83
987.513	18.83
987.806	2.83
988.099	30.83
988.391	13.83
988.684	26.83
988.977	4.83
989.269	12.83
989.562	20.83
989.854	14.83
990.147	17.83
990.439	26.83
990.731	18.83
991.023	12.83
991.316	21.83
991.608	20.83
991.9	26.83
992.192	26.83
992.484	3.83
992.776	20.83
993.068	12.83
993.359	31.83
993.651	20.83
993.943	13.83
994.235	3.83
994.526	18.83
994.818	16.83
995.109	12.83
995.401	19.83
995.692	20.83
995.983	27.83
996.275	15.83
996.566	18.83
996.857	8.83
997.148	24.83
997.439	10.83
997.73	19.83
998.021	39.83
998.312	39.83
998.603	59.83
998.894	31.83
999.184	17.83
999.475	26.83
999.766	20.83
1000.056	5.83
1000.347	16.83
1000.637	11.83
1000.928	30.83
1001.218	25.83
1001.508	16.83
1001.799	18.83
1002.089	25.83
1002.379	27.83
1002.669	19.83
1002.959	11.83
1003.249	21.83
1003.539	21.83
1003.829	17.83
1004.119	18.83
1004.409	8.83
1004.698	1.83
1004.988	8.83
1005.278	58.83
1005.567	16.83
1005.857	13.83
1006.146	29.83
1006.436	5.83
1006.725	10.83
1007.014	13.83
1007.303	9.83
1007.593	16.83
1007.882	29.83
1008.171	27.83
1008.46	27.83
1008.749	15.83
1009.038	19.83
1009.327	6.83
1009.615	19.83
1009.904	13.83
1010.193	10.83
1010.482	8.83
1010.77	23.83
1011.059	12.83
1011.347	19.83
1011.636	16.83
1011.924	23.83
1012.212	11.83
1012.501	10.83
1012.789	15.83
1013.077	27.83
1013.365	10.83
1013.653	17.83
1013.941	22.83
1014.229	12.83
1014.517	15.83
1014.805	12.83
1015.093	20.83
1015.38	12.83
1015.668	13.83
1015.956	6.83
1016.243	15.83
1016.531	11.83
1016.818	21.83
1017.106	19.83
1017.393	14.83
1017.68	3.83
1017.968	14.83
1018.255	77.83
1018.542	16.83
1018.829	48.83
1019.116	21.83
1019.403	23.83
1019.69	15.83
1019.977	11.83
1020.264	23.83
1020.551	23.83
1020.837	12.83
1021.124	20.83
1021.411	35.83
1021.697	29.83
1021.984	11.83
1022.27	22.83
1022.557	17.83
1022.843	8.83
1023.129	14.83
1023.415	23.83
1023.702	14.83
1023.988	27.83
1024.274	17.83
1024.56	12.83
1024.846	12.83
1025.132	23.83
1025.418	12.83
1025.703	23.83
1025.989	54.83
1026.275	23.83
1026.56	25.83
1026.846	5.83
1027.132	7.83
1027.417	10.83
1027.703	25.83
1027.988	19.83
1028.273	43.83
1028.558	16.83
1028.844	22.83
