Data from USB2G147421__52__12-59-16-241.txt Node

Date: Tue Jun 28 12:59:16 UTC 2022
User: yes
Spectrometer: USB2G14742
Trigger mode: 4
Integration Time (sec): 2.000000E0
Scans to average: 1
Electric dark correction enabled: true
Nonlinearity correction enabled: false
Boxcar width: 0
XAxis mode: Wavelengths
Number of Pixels in Spectrum: 2048
>>>>>Begin Spectral Data<<<<<
339.471	-153.83
339.856	-1.83
340.241	-0.83
340.625	-1.83
341.01	-3.83
341.395	32.17
341.779	10.17
342.163	12.17
342.548	11.17
342.932	13.17
343.317	11.17
343.701	8.17
344.085	12.17
344.469	5.17
344.853	4.17
345.238	8.17
345.622	11.17
346.006	23.17
346.39	3.17
346.774	9.17
347.157	13.17
347.541	6.17
347.925	8.17
348.309	9.17
348.693	25.17
349.076	5.17
349.46	19.17
349.843	13.17
350.227	7.17
350.61	69.17
350.994	17.17
351.377	15.17
351.761	31.17
352.144	26.17
352.527	2.17
352.91	7.17
353.294	10.17
353.677	16.17
354.06	17.17
354.443	93.17
354.826	9.17
355.209	3.17
355.592	4.17
355.975	4.17
356.358	19.17
356.74	18.17
357.123	13.17
357.506	8.17
357.889	10.17
358.271	19.17
358.654	8.17
359.036	14.17
359.419	8.17
359.801	14.17
360.184	11.17
360.566	15.17
360.948	26.17
361.331	18.17
361.713	6.17
362.095	24.17
362.477	7.17
362.859	6.17
363.241	15.17
363.623	9.17
364.005	18.17
364.387	23.17
364.769	13.17
365.151	16.17
365.533	38.17
365.915	26.17
366.296	8.17
366.678	60.17
367.06	9.17
367.441	19.17
367.823	27.17
368.204	11.17
368.586	15.17
368.967	13.17
369.348	20.17
369.73	18.17
370.111	11.17
370.492	9.17
370.873	14.17
371.255	39.17
371.636	13.17
372.017	16.17
372.398	22.17
372.779	19.17
373.16	7.17
373.54	9.17
373.921	9.17
374.302	7.17
374.683	15.17
375.064	14.17
375.444	7.17
375.825	14.17
376.205	11.17
376.586	20.17
376.966	13.17
377.347	16.17
377.727	8.17
378.108	11.17
378.488	9.17
378.868	7.17
379.248	13.17
379.629	11.17
380.009	39.17
380.389	13.17
380.769	15.17
381.149	10.17
381.529	25.17
381.909	29.17
382.289	14.17
382.668	93.17
383.048	8.17
383.428	13.17
383.808	7.17
384.187	11.17
384.567	20.17
384.946	4.17
385.326	19.17
385.705	19.17
386.085	10.17
386.464	23.17
386.844	16.17
387.223	11.17
387.602	14.17
387.981	16.17
388.361	10.17
388.74	19.17
389.119	9.17
389.498	15.17
389.877	14.17
390.256	8.17
390.635	19.17
391.013	16.17
391.392	9.17
391.771	50.17
392.15	20.17
392.528	12.17
392.907	8.17
393.286	21.17
393.664	27.17
394.043	7.17
394.421	17.17
394.8	10.17
395.178	8.17
395.556	15.17
395.935	19.17
396.313	12.17
396.691	16.17
397.069	10.17
397.447	1.17
397.825	17.17
398.203	9.17
398.581	22.17
398.959	15.17
399.337	18.17
399.715	74.17
400.093	10.17
400.471	11.17
400.848	7.17
401.226	13.17
401.604	12.17
401.981	12.17
402.359	14.17
402.736	9.17
403.114	42.17
403.491	18.17
403.868	21.17
404.246	56.17
404.623	25.17
405	9.17
405.377	11.17
405.755	16.17
406.132	5.17
406.509	11.17
406.886	20.17
407.263	20.17
407.64	5.17
408.017	15.17
408.393	17.17
408.77	20.17
409.147	6.17
409.524	12.17
409.9	21.17
410.277	18.17
410.653	16.17
411.03	18.17
411.406	13.17
411.783	33.17
412.159	17.17
412.536	16.17
412.912	8.17
413.288	23.17
413.664	6.17
414.04	4.17
414.417	18.17
414.793	11.17
415.169	16.17
415.545	24.17
415.921	14.17
416.297	28.17
416.672	7.17
417.048	7.17
417.424	12.17
417.8	42.17
418.175	10.17
418.551	3.17
418.927	11.17
419.302	73.17
419.678	27.17
420.053	14.17
420.429	24.17
420.804	11.17
421.179	6.17
421.554	13.17
421.93	15.17
422.305	74.17
422.68	12.17
423.055	18.17
423.43	9.17
423.805	9.17
424.18	5.17
424.555	12.17
424.93	16.17
425.305	5.17
425.68	13.17
426.054	14.17
426.429	13.17
426.804	16.17
427.178	21.17
427.553	13.17
427.927	61.17
428.302	11.17
428.676	16.17
429.051	14.17
429.425	6.17
429.799	23.17
430.174	14.17
430.548	8.17
430.922	25.17
431.296	9.17
431.67	18.17
432.044	26.17
432.418	8.17
432.792	6.17
433.166	7.17
433.54	21.17
433.914	22.17
434.287	19.17
434.661	12.17
435.035	15.17
435.408	11.17
435.782	16.17
436.156	20.17
436.529	55.17
436.903	12.17
437.276	12.17
437.649	29.17
438.023	62.17
438.396	12.17
438.769	15.17
439.142	11.17
439.515	28.17
439.889	17.17
440.262	19.17
440.635	33.17
441.008	26.17
441.38	22.17
441.753	19.17
442.126	15.17
442.499	15.17
442.872	79.17
443.244	61.17
443.617	10.17
443.99	24.17
444.362	22.17
444.735	12.17
445.107	20.17
445.48	52.17
445.852	13.17
446.224	19.17
446.597	18.17
446.969	26.17
447.341	33.17
447.713	33.17
448.085	19.17
448.457	24.17
448.829	15.17
449.201	31.17
449.573	22.17
449.945	28.17
450.317	23.17
450.689	24.17
451.061	24.17
451.432	11.17
451.804	25.17
452.176	46.17
452.547	30.17
452.919	30.17
453.29	24.17
453.662	27.17
454.033	20.17
454.404	35.17
454.776	18.17
455.147	20.17
455.518	24.17
455.889	26.17
456.26	26.17
456.631	31.17
457.002	25.17
457.373	23.17
457.744	38.17
458.115	28.17
458.486	30.17
458.857	18.17
459.228	26.17
459.598	17.17
459.969	17.17
460.34	32.17
460.71	11.17
461.081	17.17
461.451	33.17
461.822	21.17
462.192	14.17
462.563	15.17
462.933	24.17
463.303	21.17
463.673	32.17
464.044	29.17
464.414	28.17
464.784	22.17
465.154	17.17
465.524	22.17
465.894	26.17
466.264	17.17
466.634	17.17
467.003	22.17
467.373	21.17
467.743	33.17
468.113	25.17
468.482	25.17
468.852	24.17
469.221	23.17
469.591	19.17
469.96	33.17
470.33	16.17
470.699	65.17
471.068	12.17
471.438	20.17
471.807	23.17
472.176	29.17
472.545	41.17
472.914	14.17
473.283	22.17
473.652	20.17
474.021	40.17
474.39	24.17
474.759	22.17
475.128	18.17
475.497	10.17
475.865	11.17
476.234	17.17
476.603	10.17
476.971	19.17
477.34	10.17
477.708	30.17
478.077	15.17
478.445	19.17
478.814	17.17
479.182	22.17
479.55	19.17
479.919	17.17
480.287	19.17
480.655	34.17
481.023	11.17
481.391	21.17
481.759	23.17
482.127	19.17
482.495	14.17
482.863	22.17
483.231	16.17
483.598	25.17
483.966	28.17
484.334	23.17
484.701	25.17
485.069	23.17
485.437	44.17
485.804	16.17
486.172	24.17
486.539	21.17
486.906	13.17
487.274	33.17
487.641	21.17
488.008	33.17
488.375	34.17
488.743	24.17
489.11	23.17
489.477	14.17
489.844	18.17
490.211	20.17
490.578	17.17
490.945	30.17
491.311	26.17
491.678	26.17
492.045	35.17
492.412	12.17
492.778	19.17
493.145	28.17
493.511	18.17
493.878	30.17
494.244	26.17
494.611	23.17
494.977	25.17
495.344	16.17
495.71	60.17
496.076	16.17
496.442	32.17
496.808	19.17
497.175	27.17
497.541	19.17
497.907	26.17
498.273	42.17
498.638	45.17
499.004	19.17
499.37	23.17
499.736	55.17
500.102	21.17
500.467	38.17
500.833	24.17
501.199	37.17
501.564	29.17
501.93	23.17
502.295	40.17
502.661	25.17
503.026	31.17
503.391	29.17
503.757	37.17
504.122	23.17
504.487	30.17
504.852	43.17
505.217	38.17
505.582	27.17
505.947	36.17
506.312	37.17
506.677	30.17
507.042	32.17
507.407	40.17
507.772	55.17
508.136	51.17
508.501	47.17
508.866	33.17
509.23	55.17
509.595	42.17
509.959	35.17
510.324	32.17
510.688	53.17
511.053	49.17
511.417	96.17
511.781	40.17
512.146	34.17
512.51	57.17
512.874	81.17
513.238	32.17
513.602	37.17
513.966	46.17
514.33	41.17
514.694	37.17
515.058	33.17
515.422	51.17
515.785	60.17
516.149	41.17
516.513	52.17
516.876	42.17
517.24	44.17
517.604	38.17
517.967	52.17
518.331	38.17
518.694	40.17
519.057	51.17
519.421	46.17
519.784	53.17
520.147	61.17
520.51	67.17
520.873	45.17
521.237	49.17
521.6	53.17
521.963	48.17
522.326	46.17
522.688	46.17
523.051	53.17
523.414	56.17
523.777	126.17
524.14	47.17
524.502	51.17
524.865	59.17
525.228	49.17
525.59	60.17
525.953	65.17
526.315	53.17
526.677	51.17
527.04	98.17
527.402	52.17
527.764	57.17
528.127	48.17
528.489	63.17
528.851	55.17
529.213	55.17
529.575	56.17
529.937	71.17
530.299	52.17
530.661	58.17
531.023	59.17
531.384	58.17
531.746	51.17
532.108	55.17
532.47	57.17
532.831	60.17
533.193	52.17
533.554	71.17
533.916	57.17
534.277	70.17
534.639	48.17
535	56.17
535.361	67.17
535.723	66.17
536.084	62.17
536.445	86.17
536.806	130.17
537.167	85.17
537.528	63.17
537.889	83.17
538.25	63.17
538.611	78.17
538.972	71.17
539.333	71.17
539.693	81.17
540.054	252.17
540.415	62.17
540.775	58.17
541.136	66.17
541.496	61.17
541.857	80.17
542.217	62.17
542.578	72.17
542.938	92.17
543.298	73.17
543.658	74.17
544.019	73.17
544.379	68.17
544.739	72.17
545.099	70.17
545.459	77.17
545.819	77.17
546.179	67.17
546.539	97.17
546.899	80.17
547.258	84.17
547.618	82.17
547.978	83.17
548.337	82.17
548.697	80.17
549.056	96.17
549.416	78.17
549.775	85.17
550.135	88.17
550.494	71.17
550.854	95.17
551.213	92.17
551.572	87.17
551.931	85.17
552.29	87.17
552.649	92.17
553.008	84.17
553.367	111.17
553.726	105.17
554.085	80.17
554.444	188.17
554.803	79.17
555.162	94.17
555.52	87.17
555.879	93.17
556.238	90.17
556.596	81.17
556.955	89.17
557.313	100.17
557.672	91.17
558.03	81.17
558.388	88.17
558.747	108.17
559.105	86.17
559.463	84.17
559.821	83.17
560.179	97.17
560.537	90.17
560.896	92.17
561.253	83.17
561.611	87.17
561.969	89.17
562.327	98.17
562.685	101.17
563.043	88.17
563.4	79.17
563.758	102.17
564.116	101.17
564.473	95.17
564.831	85.17
565.188	93.17
565.546	125.17
565.903	100.17
566.26	100.17
566.617	103.17
566.975	114.17
567.332	92.17
567.689	92.17
568.046	98.17
568.403	109.17
568.76	93.17
569.117	115.17
569.474	100.17
569.831	86.17
570.188	103.17
570.544	104.17
570.901	105.17
571.258	123.17
571.614	96.17
571.971	105.17
572.328	95.17
572.684	100.17
573.04	119.17
573.397	95.17
573.753	124.17
574.109	103.17
574.466	116.17
574.822	104.17
575.178	112.17
575.534	106.17
575.89	120.17
576.246	102.17
576.602	113.17
576.958	110.17
577.314	114.17
577.67	102.17
578.026	107.17
578.381	110.17
578.737	107.17
579.093	112.17
579.448	118.17
579.804	138.17
580.159	119.17
580.515	98.17
580.87	111.17
581.226	110.17
581.581	120.17
581.936	121.17
582.291	104.17
582.647	110.17
583.002	128.17
583.357	103.17
583.712	113.17
584.067	106.17
584.422	114.17
584.777	112.17
585.131	106.17
585.486	105.17
585.841	103.17
586.196	132.17
586.55	112.17
586.905	114.17
587.26	104.17
587.614	100.17
587.969	138.17
588.323	120.17
588.677	124.17
589.032	117.17
589.386	125.17
589.74	143.17
590.094	128.17
590.449	131.17
590.803	140.17
591.157	109.17
591.511	132.17
591.865	125.17
592.219	131.17
592.573	110.17
592.926	110.17
593.28	103.17
593.634	137.17
593.988	107.17
594.341	102.17
594.695	119.17
595.048	97.17
595.402	101.17
595.755	102.17
596.109	122.17
596.462	116.17
596.815	104.17
597.169	124.17
597.522	97.17
597.875	148.17
598.228	110.17
598.581	105.17
598.934	129.17
599.287	100.17
599.64	114.17
599.993	101.17
600.346	103.17
600.698	106.17
601.051	111.17
601.404	107.17
601.757	105.17
602.109	116.17
602.462	113.17
602.814	94.17
603.167	96.17
603.519	105.17
603.871	114.17
604.224	106.17
604.576	96.17
604.928	122.17
605.28	94.17
605.633	102.17
605.985	107.17
606.337	105.17
606.689	86.17
607.041	120.17
607.392	88.17
607.744	102.17
608.096	88.17
608.448	92.17
608.8	90.17
609.151	94.17
609.503	88.17
609.854	100.17
610.206	126.17
610.557	94.17
610.909	84.17
611.26	99.17
611.612	90.17
611.963	89.17
612.314	102.17
612.665	87.17
613.016	89.17
613.367	90.17
613.719	107.17
614.07	82.17
614.42	92.17
614.771	83.17
615.122	95.17
615.473	91.17
615.824	82.17
616.174	99.17
616.525	83.17
616.876	69.17
617.226	91.17
617.577	79.17
617.927	78.17
618.278	81.17
618.628	142.17
618.979	93.17
619.329	78.17
619.679	97.17
620.029	90.17
620.379	74.17
620.729	96.17
621.08	87.17
621.43	104.17
621.779	100.17
622.129	79.17
622.479	80.17
622.829	75.17
623.179	76.17
623.529	71.17
623.878	79.17
624.228	68.17
624.577	59.17
624.927	63.17
625.276	65.17
625.626	91.17
625.975	83.17
626.325	73.17
626.674	115.17
627.023	65.17
627.372	70.17
627.722	95.17
628.071	93.17
628.42	78.17
628.769	109.17
629.118	60.17
629.467	69.17
629.815	77.17
630.164	57.17
630.513	77.17
630.862	105.17
631.21	68.17
631.559	63.17
631.908	52.17
632.256	63.17
632.605	60.17
632.953	64.17
633.302	57.17
633.65	83.17
633.998	124.17
634.346	78.17
634.695	55.17
635.043	57.17
635.391	75.17
635.739	57.17
636.087	57.17
636.435	81.17
636.783	64.17
637.131	55.17
637.479	73.17
637.826	48.17
638.174	55.17
638.522	55.17
638.869	95.17
639.217	58.17
639.564	64.17
639.912	47.17
640.259	53.17
640.607	57.17
640.954	64.17
641.301	64.17
641.649	48.17
641.996	49.17
642.343	57.17
642.69	52.17
643.037	63.17
643.384	84.17
643.731	51.17
644.078	80.17
644.425	45.17
644.772	51.17
645.119	48.17
645.465	43.17
645.812	53.17
646.159	58.17
646.505	54.17
646.852	67.17
647.198	46.17
647.545	53.17
647.891	70.17
648.237	49.17
648.584	53.17
648.93	47.17
649.276	57.17
649.622	59.17
649.969	66.17
650.315	58.17
650.661	56.17
651.007	47.17
651.352	56.17
651.698	38.17
652.044	37.17
652.39	52.17
652.736	39.17
653.081	39.17
653.427	46.17
653.773	49.17
654.118	45.17
654.464	43.17
654.809	48.17
655.154	37.17
655.5	46.17
655.845	37.17
656.19	40.17
656.536	39.17
656.881	44.17
657.226	39.17
657.571	88.17
657.916	39.17
658.261	32.17
658.606	43.17
658.951	30.17
659.295	34.17
659.64	26.17
659.985	34.17
660.33	34.17
660.674	35.17
661.019	37.17
661.363	32.17
661.708	41.17
662.052	20.17
662.397	29.17
662.741	30.17
663.085	31.17
663.429	36.17
663.774	75.17
664.118	23.17
664.462	35.17
664.806	27.17
665.15	44.17
665.494	23.17
665.838	31.17
666.182	35.17
666.526	38.17
666.869	24.17
667.213	20.17
667.557	36.17
667.9	43.17
668.244	31.17
668.587	39.17
668.931	21.17
669.274	27.17
669.618	25.17
669.961	33.17
670.304	24.17
670.648	28.17
670.991	19.17
671.334	16.17
671.677	18.17
672.02	21.17
672.363	20.17
672.706	25.17
673.049	35.17
673.392	19.17
673.735	26.17
674.077	19.17
674.42	23.17
674.763	23.17
675.105	24.17
675.448	38.17
675.79	23.17
676.133	24.17
676.475	15.17
676.818	16.17
677.16	19.17
677.502	33.17
677.844	49.17
678.187	11.17
678.529	47.17
678.871	27.17
679.213	22.17
679.555	30.17
679.897	30.17
680.239	24.17
680.58	26.17
680.922	28.17
681.264	39.17
681.606	22.17
681.947	28.17
682.289	26.17
682.631	58.17
682.972	17.17
683.313	26.17
683.655	25.17
683.996	23.17
684.338	17.17
684.679	17.17
685.02	18.17
685.361	24.17
685.702	27.17
686.043	28.17
686.384	18.17
686.725	20.17
687.066	33.17
687.407	23.17
687.748	16.17
688.089	40.17
688.43	19.17
688.77	61.17
689.111	30.17
689.451	25.17
689.792	27.17
690.132	21.17
690.473	23.17
690.813	18.17
691.154	24.17
691.494	22.17
691.834	21.17
692.174	19.17
692.515	17.17
692.855	16.17
693.195	32.17
693.535	29.17
693.875	23.17
694.215	23.17
694.554	28.17
694.894	22.17
695.234	24.17
695.574	26.17
695.913	22.17
696.253	21.17
696.593	31.17
696.932	25.17
697.272	22.17
697.611	13.17
697.95	28.17
698.29	18.17
698.629	24.17
698.968	18.17
699.307	15.17
699.647	18.17
699.986	34.17
700.325	26.17
700.664	15.17
701.003	23.17
701.341	16.17
701.68	16.17
702.019	10.17
702.358	13.17
702.697	26.17
703.035	29.17
703.374	21.17
703.712	27.17
704.051	14.17
704.389	20.17
704.728	15.17
705.066	15.17
705.404	26.17
705.743	27.17
706.081	15.17
706.419	8.17
706.757	16.17
707.095	35.17
707.433	22.17
707.771	26.17
708.109	12.17
708.447	24.17
708.785	22.17
709.123	32.17
709.46	19.17
709.798	16.17
710.136	29.17
710.473	22.17
710.811	28.17
711.148	32.17
711.486	23.17
711.823	13.17
712.16	20.17
712.498	15.17
712.835	32.17
713.172	19.17
713.509	27.17
713.846	78.17
714.183	32.17
714.52	16.17
714.857	13.17
715.194	16.17
715.531	16.17
715.868	27.17
716.205	16.17
716.541	28.17
716.878	36.17
717.215	20.17
717.551	29.17
717.888	25.17
718.224	72.17
718.561	21.17
718.897	15.17
719.233	16.17
719.57	20.17
719.906	11.17
720.242	7.17
720.578	10.17
720.914	16.17
721.25	19.17
721.586	11.17
721.922	15.17
722.258	32.17
722.594	12.17
722.929	25.17
723.265	16.17
723.601	22.17
723.937	27.17
724.272	9.17
724.608	17.17
724.943	10.17
725.279	8.17
725.614	7.17
725.949	20.17
726.285	15.17
726.62	40.17
726.955	11.17
727.29	13.17
727.625	10.17
727.96	21.17
728.295	28.17
728.63	18.17
728.965	12.17
729.3	14.17
729.635	62.17
729.97	16.17
730.304	17.17
730.639	17.17
730.974	15.17
731.308	24.17
731.643	7.17
731.977	25.17
732.311	24.17
732.646	11.17
732.98	13.17
733.314	9.17
733.649	20.17
733.983	30.17
734.317	44.17
734.651	10.17
734.985	14.17
735.319	15.17
735.653	14.17
735.987	27.17
736.321	29.17
736.654	6.17
736.988	20.17
737.322	35.17
737.655	25.17
737.989	24.17
738.322	20.17
738.656	13.17
738.989	21.17
739.323	16.17
739.656	19.17
739.989	35.17
740.323	8.17
740.656	15.17
740.989	9.17
741.322	17.17
741.655	23.17
741.988	39.17
742.321	30.17
742.654	17.17
742.987	9.17
743.319	17.17
743.652	26.17
743.985	22.17
744.317	9.17
744.65	7.17
744.983	23.17
745.315	13.17
745.648	16.17
745.98	13.17
746.312	14.17
746.645	12.17
746.977	22.17
747.309	17.17
747.641	11.17
747.973	26.17
748.305	4.17
748.637	10.17
748.969	10.17
749.301	22.17
749.633	14.17
749.965	4.17
750.297	18.17
750.628	23.17
750.96	15.17
751.292	31.17
751.623	11.17
751.955	20.17
752.286	23.17
752.618	13.17
752.949	8.17
753.28	24.17
753.611	5.17
753.943	15.17
754.274	21.17
754.605	19.17
754.936	16.17
755.267	12.17
755.598	26.17
755.929	11.17
756.26	6.17
756.591	136.17
756.921	12.17
757.252	18.17
757.583	14.17
757.913	13.17
758.244	11.17
758.574	20.17
758.905	10.17
759.235	28.17
759.566	5.17
759.896	30.17
760.226	18.17
760.557	3.17
760.887	7.17
761.217	13.17
761.547	24.17
761.877	23.17
762.207	25.17
762.537	13.17
762.867	17.17
763.197	43.17
763.526	16.17
763.856	25.17
764.186	19.17
764.515	4.17
764.845	-0.83
765.175	20.17
765.504	12.17
765.833	8.17
766.163	10.17
766.492	15.17
766.821	16.17
767.151	13.17
767.48	10.17
767.809	24.17
768.138	13.17
768.467	8.17
768.796	7.17
769.125	11.17
769.454	9.17
769.783	18.17
770.112	14.17
770.44	17.17
770.769	10.17
771.098	26.17
771.426	21.17
771.755	8.17
772.083	15.17
772.412	15.17
772.74	13.17
773.069	78.17
773.397	26.17
773.725	7.17
774.053	42.17
774.381	23.17
774.71	23.17
775.038	3.17
775.366	12.17
775.693	10.17
776.021	22.17
776.349	8.17
776.677	15.17
777.005	12.17
777.332	17.17
777.66	2.17
777.988	11.17
778.315	30.17
778.643	16.17
778.97	13.17
779.298	12.17
779.625	11.17
779.952	14.17
780.28	23.17
780.607	13.17
780.934	26.17
781.261	24.17
781.588	11.17
781.915	23.17
782.242	21.17
782.569	37.17
782.896	15.17
783.223	13.17
783.549	22.17
783.876	20.17
784.203	8.17
784.529	36.17
784.856	24.17
785.182	17.17
785.509	22.17
785.835	16.17
786.162	15.17
786.488	11.17
786.814	-0.83
787.14	18.17
787.466	16.17
787.793	22.17
788.119	10.17
788.445	11.17
788.771	28.17
789.097	15.17
789.422	16.17
789.748	10.17
790.074	9.17
790.4	30.17
790.725	17.17
791.051	74.17
791.376	13.17
791.702	16.17
792.027	12.17
792.353	11.17
792.678	20.17
793.004	33.17
793.329	22.17
793.654	11.17
793.979	18.17
794.304	10.17
794.629	17.17
794.954	10.17
795.279	14.17
795.604	20.17
795.929	13.17
796.254	9.17
796.579	5.17
796.903	74.17
797.228	5.17
797.553	35.17
797.877	4.17
798.202	23.17
798.526	16.17
798.851	11.17
799.175	12.17
799.499	14.17
799.823	13.17
800.148	7.17
800.472	7.17
800.796	8.17
801.12	16.17
801.444	15.17
801.768	13.17
802.092	16.17
802.416	15.17
802.74	25.17
803.063	16.17
803.387	18.17
803.711	89.17
804.034	19.17
804.358	15.17
804.681	23.17
805.005	15.17
805.328	14.17
805.652	6.17
805.975	10.17
806.298	20.17
806.621	15.17
806.944	14.17
807.268	28.17
807.591	21.17
807.914	9.17
808.237	20.17
808.56	19.17
808.882	21.17
809.205	24.17
809.528	8.17
809.851	6.17
810.173	13.17
810.496	91.17
810.818	57.17
811.141	7.17
811.463	36.17
811.786	60.17
812.108	17.17
812.43	18.17
812.753	18.17
813.075	25.17
813.397	23.17
813.719	21.17
814.041	12.17
814.363	6.17
814.685	11.17
815.007	16.17
815.329	14.17
815.651	18.17
815.972	7.17
816.294	30.17
816.616	7.17
816.937	14.17
817.259	19.17
817.58	26.17
817.902	5.17
818.223	20.17
818.545	18.17
818.866	21.17
819.187	13.17
819.508	29.17
819.83	22.17
820.151	34.17
820.472	15.17
820.793	21.17
821.114	10.17
821.435	8.17
821.755	6.17
822.076	15.17
822.397	11.17
822.718	49.17
823.038	18.17
823.359	29.17
823.679	10.17
824	31.17
824.32	7.17
824.641	16.17
824.961	15.17
825.281	22.17
825.602	15.17
825.922	4.17
826.242	18.17
826.562	33.17
826.882	18.17
827.202	27.17
827.522	47.17
827.842	16.17
828.162	8.17
828.481	11.17
828.801	16.17
829.121	28.17
829.441	28.17
829.76	15.17
830.08	16.17
830.399	3.17
830.719	17.17
831.038	9.17
831.357	5.17
831.677	10.17
831.996	25.17
832.315	19.17
832.634	12.17
832.953	10.17
833.272	15.17
833.591	10.17
833.91	8.17
834.229	10.17
834.548	20.17
834.867	10.17
835.185	14.17
835.504	35.17
835.823	73.17
836.141	16.17
836.46	17.17
836.778	18.17
837.097	12.17
837.415	2.17
837.733	16.17
838.051	4.17
838.37	17.17
838.688	15.17
839.006	12.17
839.324	8.17
839.642	25.17
839.96	13.17
840.278	25.17
840.596	17.17
840.914	22.17
841.231	26.17
841.549	31.17
841.867	7.17
842.184	12.17
842.502	35.17
842.819	18.17
843.137	30.17
843.454	15.17
843.772	22.17
844.089	23.17
844.406	57.17
844.723	19.17
845.041	10.17
845.358	16.17
845.675	13.17
845.992	13.17
846.309	11.17
846.626	20.17
846.942	25.17
847.259	11.17
847.576	11.17
847.893	19.17
848.209	19.17
848.526	12.17
848.842	54.17
849.159	15.17
849.475	16.17
849.792	12.17
850.108	23.17
850.424	6.17
850.741	33.17
851.057	19.17
851.373	12.17
851.689	17.17
852.005	20.17
852.321	15.17
852.637	17.17
852.953	17.17
853.269	14.17
853.584	8.17
853.9	3.17
854.216	10.17
854.531	8.17
854.847	17.17
855.163	12.17
855.478	13.17
855.793	10.17
856.109	8.17
856.424	9.17
856.739	13.17
857.055	15.17
857.37	18.17
857.685	18.17
858	23.17
858.315	41.17
858.63	11.17
858.945	16.17
859.26	24.17
859.574	22.17
859.889	14.17
860.204	6.17
860.519	20.17
860.833	14.17
861.148	8.17
861.462	19.17
861.777	6.17
862.091	34.17
862.405	10.17
862.72	15.17
863.034	19.17
863.348	31.17
863.662	7.17
863.976	26.17
864.291	247.17
864.605	18.17
864.918	16.17
865.232	8.17
865.546	19.17
865.86	31.17
866.174	7.17
866.487	18.17
866.801	15.17
867.115	16.17
867.428	15.17
867.742	17.17
868.055	13.17
868.368	12.17
868.682	8.17
868.995	33.17
869.308	15.17
869.621	20.17
869.935	13.17
870.248	27.17
870.561	15.17
870.874	17.17
871.187	26.17
871.499	18.17
871.812	11.17
872.125	25.17
872.438	33.17
872.75	15.17
873.063	14.17
873.376	5.17
873.688	14.17
874.001	17.17
874.313	15.17
874.625	66.17
874.938	15.17
875.25	4.17
875.562	17.17
875.874	12.17
876.186	5.17
876.498	31.17
876.81	28.17
877.122	33.17
877.434	28.17
877.746	26.17
878.058	24.17
878.37	17.17
878.681	10.17
878.993	3.17
879.304	24.17
879.616	7.17
879.927	7.17
880.239	42.17
880.55	11.17
880.862	9.17
881.173	14.17
881.484	11.17
881.795	13.17
882.106	68.17
882.417	22.17
882.729	5.17
883.039	20.17
883.35	10.17
883.661	25.17
883.972	16.17
884.283	10.17
884.594	26.17
884.904	33.17
885.215	76.17
885.525	27.17
885.836	1.17
886.146	28.17
886.457	23.17
886.767	21.17
887.077	5.17
887.388	18.17
887.698	9.17
888.008	11.17
888.318	1.17
888.628	16.17
888.938	32.17
889.248	23.17
889.558	15.17
889.868	8.17
890.178	7.17
890.487	0.17
890.797	53.17
891.107	24.17
891.416	12.17
891.726	14.17
892.035	11.17
892.345	15.17
892.654	11.17
892.963	34.17
893.273	20.17
893.582	18.17
893.891	16.17
894.2	19.17
894.509	14.17
894.818	8.17
895.127	24.17
895.436	18.17
895.745	7.17
896.054	13.17
896.362	23.17
896.671	8.17
896.98	30.17
897.288	8.17
897.597	12.17
897.905	7.17
898.214	19.17
898.522	20.17
898.831	5.17
899.139	14.17
899.447	10.17
899.755	18.17
900.063	19.17
900.372	132.17
900.68	10.17
900.988	5.17
901.296	23.17
901.603	23.17
901.911	4.17
902.219	9.17
902.527	15.17
902.834	10.17
903.142	13.17
903.45	11.17
903.757	7.17
904.065	23.17
904.372	31.17
904.679	9.17
904.987	3.17
905.294	20.17
905.601	22.17
905.908	5.17
906.215	23.17
906.522	79.17
906.829	19.17
907.136	19.17
907.443	4.17
907.75	11.17
908.057	58.17
908.364	22.17
908.67	36.17
908.977	15.17
909.283	14.17
909.59	7.17
909.896	15.17
910.203	11.17
910.509	12.17
910.816	14.17
911.122	22.17
911.428	12.17
911.734	20.17
912.04	28.17
912.346	24.17
912.652	29.17
912.958	22.17
913.264	12.17
913.57	14.17
913.876	9.17
914.182	3.17
914.487	24.17
914.793	16.17
915.099	5.17
915.404	21.17
915.71	23.17
916.015	35.17
916.321	11.17
916.626	19.17
916.931	10.17
917.236	13.17
917.542	5.17
917.847	14.17
918.152	11.17
918.457	5.17
918.762	11.17
919.067	18.17
919.372	10.17
919.676	1.17
919.981	17.17
920.286	15.17
920.59	12.17
920.895	15.17
921.2	68.17
921.504	27.17
921.809	75.17
922.113	19.17
922.417	4.17
922.722	22.17
923.026	5.17
923.33	113.17
923.634	12.17
923.938	24.17
924.242	13.17
924.546	-0.83
924.85	15.17
925.154	9.17
925.458	15.17
925.762	10.17
926.065	4.17
926.369	8.17
926.673	7.17
926.976	71.17
927.28	18.17
927.583	10.17
927.887	25.17
928.19	64.17
928.493	19.17
928.797	18.17
929.1	13.17
929.403	8.17
929.706	3.17
930.009	7.17
930.312	47.17
930.615	22.17
930.918	24.17
931.221	30.17
931.524	12.17
931.826	13.17
932.129	17.17
932.432	5.17
932.734	48.17
933.037	18.17
933.339	23.17
933.642	25.17
933.944	18.17
934.246	16.17
934.548	25.17
934.851	11.17
935.153	7.17
935.455	10.17
935.757	12.17
936.059	10.17
936.361	20.17
936.663	50.17
936.965	7.17
937.266	17.17
937.568	23.17
937.87	10.17
938.172	7.17
938.473	16.17
938.775	21.17
939.076	20.17
939.378	22.17
939.679	20.17
939.98	23.17
940.281	22.17
940.583	10.17
940.884	11.17
941.185	36.17
941.486	22.17
941.787	29.17
942.088	11.17
942.389	20.17
942.69	15.17
942.991	5.17
943.291	17.17
943.592	43.17
943.893	22.17
944.193	24.17
944.494	21.17
944.794	15.17
945.095	32.17
945.395	17.17
945.695	8.17
945.996	42.17
946.296	16.17
946.596	14.17
946.896	16.17
947.196	19.17
947.496	21.17
947.796	15.17
948.096	12.17
948.396	12.17
948.696	16.17
948.995	11.17
949.295	10.17
949.595	25.17
949.894	28.17
950.194	58.17
950.493	30.17
950.793	40.17
951.092	26.17
951.391	14.17
951.691	13.17
951.99	17.17
952.289	14.17
952.588	22.17
952.887	13.17
953.186	8.17
953.485	15.17
953.784	7.17
954.083	21.17
954.382	8.17
954.681	47.17
954.979	11.17
955.278	11.17
955.576	28.17
955.875	11.17
956.174	28.17
956.472	14.17
956.77	10.17
957.069	2.17
957.367	5.17
957.665	6.17
957.963	32.17
958.261	6.17
958.559	15.17
958.857	69.17
959.155	32.17
959.453	14.17
959.751	17.17
960.049	41.17
960.347	17.17
960.644	16.17
960.942	16.17
961.24	16.17
961.537	29.17
961.835	9.17
962.132	11.17
962.429	60.17
962.727	26.17
963.024	15.17
963.321	11.17
963.618	53.17
963.916	37.17
964.213	65.17
964.51	15.17
964.807	11.17
965.104	17.17
965.4	15.17
965.697	22.17
965.994	18.17
966.291	65.17
966.587	43.17
966.884	22.17
967.18	20.17
967.477	13.17
967.773	23.17
968.07	25.17
968.366	22.17
968.662	14.17
968.958	7.17
969.255	12.17
969.551	16.17
969.847	7.17
970.143	8.17
970.439	18.17
970.735	16.17
971.03	12.17
971.326	19.17
971.622	18.17
971.918	8.17
972.213	6.17
972.509	22.17
972.804	13.17
973.1	2.17
973.395	20.17
973.691	12.17
973.986	14.17
974.281	52.17
974.576	19.17
974.872	17.17
975.167	8.17
975.462	13.17
975.757	15.17
976.052	16.17
976.347	19.17
976.641	16.17
976.936	19.17
977.231	17.17
977.526	16.17
977.82	14.17
978.115	14.17
978.409	16.17
978.704	14.17
978.998	26.17
979.293	21.17
979.587	27.17
979.881	25.17
980.175	30.17
980.469	9.17
980.764	14.17
981.058	10.17
981.352	15.17
981.646	19.17
981.939	30.17
982.233	25.17
982.527	58.17
982.821	60.17
983.114	29.17
983.408	9.17
983.702	29.17
983.995	20.17
984.289	20.17
984.582	5.17
984.875	3.17
985.169	63.17
985.462	7.17
985.755	23.17
986.048	26.17
986.341	30.17
986.634	26.17
986.927	13.17
987.22	22.17
987.513	20.17
987.806	6.17
988.099	31.17
988.391	17.17
988.684	31.17
988.977	6.17
989.269	15.17
989.562	18.17
989.854	16.17
990.147	14.17
990.439	28.17
990.731	17.17
991.023	17.17
991.316	25.17
991.608	19.17
991.9	26.17
992.192	21.17
992.484	4.17
992.776	18.17
993.068	15.17
993.359	35.17
993.651	22.17
993.943	16.17
994.235	7.17
994.526	17.17
994.818	13.17
995.109	12.17
995.401	27.17
995.692	25.17
995.983	28.17
996.275	15.17
996.566	18.17
996.857	5.17
997.148	21.17
997.439	11.17
997.73	19.17
998.021	44.17
998.312	34.17
998.603	61.17
998.894	27.17
999.184	15.17
999.475	29.17
999.766	20.17
1000.056	4.17
1000.347	21.17
1000.637	10.17
1000.928	30.17
1001.218	24.17
1001.508	14.17
1001.799	25.17
1002.089	22.17
1002.379	24.17
1002.669	19.17
1002.959	14.17
1003.249	24.17
1003.539	20.17
1003.829	20.17
1004.119	15.17
1004.409	4.17
1004.698	-0.83
1004.988	12.17
1005.278	57.17
1005.567	16.17
1005.857	16.17
1006.146	29.17
1006.436	10.17
1006.725	13.17
1007.014	17.17
1007.303	14.17
1007.593	14.17
1007.882	36.17
1008.171	34.17
1008.46	30.17
1008.749	22.17
1009.038	19.17
1009.327	6.17
1009.615	18.17
1009.904	16.17
1010.193	10.17
1010.482	12.17
1010.77	32.17
1011.059	14.17
1011.347	17.17
1011.636	12.17
1011.924	25.17
1012.212	10.17
1012.501	12.17
1012.789	12.17
1013.077	26.17
1013.365	14.17
1013.653	22.17
1013.941	22.17
1014.229	18.17
1014.517	8.17
1014.805	12.17
1015.093	19.17
1015.38	11.17
1015.668	13.17
1015.956	15.17
1016.243	18.17
1016.531	10.17
1016.818	22.17
1017.106	23.17
1017.393	17.17
1017.68	4.17
1017.968	18.17
1018.255	81.17
1018.542	20.17
1018.829	44.17
1019.116	21.17
1019.403	20.17
1019.69	17.17
1019.977	16.17
1020.264	12.17
1020.551	31.17
1020.837	15.17
1021.124	27.17
1021.411	33.17
1021.697	30.17
1021.984	9.17
1022.27	22.17
1022.557	17.17
1022.843	3.17
1023.129	13.17
1023.415	21.17
1023.702	22.17
1023.988	25.17
1024.274	12.17
1024.56	14.17
1024.846	11.17
1025.132	28.17
1025.418	11.17
1025.703	25.17
1025.989	54.17
1026.275	25.17
1026.56	22.17
1026.846	11.17
1027.132	7.17
1027.417	3.17
1027.703	25.17
1027.988	17.17
1028.273	39.17
1028.558	15.17
1028.844	24.17
