Data from USB2G147421__69__13-06-09-881.txt Node

Date: Tue Jun 28 13:06:09 UTC 2022
User: yes
Spectrometer: USB2G14742
Trigger mode: 4
Integration Time (sec): 2.000000E0
Scans to average: 1
Electric dark correction enabled: true
Nonlinearity correction enabled: false
Boxcar width: 0
XAxis mode: Wavelengths
Number of Pixels in Spectrum: 2048
>>>>>Begin Spectral Data<<<<<
339.471	-152.89
339.856	-5.89
340.241	-4.89
340.625	-3.89
341.01	0.11
341.395	36.11
341.779	8.11
342.163	11.11
342.548	15.11
342.932	16.11
343.317	5.11
343.701	11.11
344.085	9.11
344.469	5.11
344.853	6.11
345.238	6.11
345.622	13.11
346.006	25.11
346.39	8.11
346.774	18.11
347.157	15.11
347.541	12.11
347.925	6.11
348.309	8.11
348.693	35.11
349.076	13.11
349.46	29.11
349.843	12.11
350.227	11.11
350.61	66.11
350.994	18.11
351.377	10.11
351.761	33.11
352.144	22.11
352.527	9.11
352.91	12.11
353.294	12.11
353.677	14.11
354.06	16.11
354.443	95.11
354.826	5.11
355.209	5.11
355.592	4.11
355.975	8.11
356.358	17.11
356.74	16.11
357.123	10.11
357.506	17.11
357.889	8.11
358.271	20.11
358.654	7.11
359.036	15.11
359.419	11.11
359.801	14.11
360.184	15.11
360.566	14.11
360.948	26.11
361.331	9.11
361.713	3.11
362.095	19.11
362.477	7.11
362.859	11.11
363.241	16.11
363.623	9.11
364.005	23.11
364.387	23.11
364.769	7.11
365.151	13.11
365.533	33.11
365.915	29.11
366.296	12.11
366.678	51.11
367.06	14.11
367.441	13.11
367.823	22.11
368.204	13.11
368.586	13.11
368.967	14.11
369.348	18.11
369.73	16.11
370.111	9.11
370.492	7.11
370.873	14.11
371.255	47.11
371.636	13.11
372.017	21.11
372.398	17.11
372.779	13.11
373.16	10.11
373.54	8.11
373.921	15.11
374.302	6.11
374.683	14.11
375.064	11.11
375.444	11.11
375.825	12.11
376.205	16.11
376.586	19.11
376.966	16.11
377.347	17.11
377.727	15.11
378.108	7.11
378.488	13.11
378.868	6.11
379.248	12.11
379.629	16.11
380.009	47.11
380.389	11.11
380.769	18.11
381.149	15.11
381.529	25.11
381.909	22.11
382.289	13.11
382.668	96.11
383.048	13.11
383.428	3.11
383.808	9.11
384.187	17.11
384.567	20.11
384.946	7.11
385.326	18.11
385.705	22.11
386.085	6.11
386.464	21.11
386.844	20.11
387.223	11.11
387.602	11.11
387.981	18.11
388.361	10.11
388.74	20.11
389.119	5.11
389.498	17.11
389.877	17.11
390.256	11.11
390.635	22.11
391.013	15.11
391.392	7.11
391.771	50.11
392.15	14.11
392.528	16.11
392.907	11.11
393.286	15.11
393.664	20.11
394.043	11.11
394.421	17.11
394.8	13.11
395.178	11.11
395.556	21.11
395.935	13.11
396.313	14.11
396.691	20.11
397.069	9.11
397.447	11.11
397.825	16.11
398.203	16.11
398.581	23.11
398.959	15.11
399.337	19.11
399.715	73.11
400.093	9.11
400.471	9.11
400.848	14.11
401.226	20.11
401.604	9.11
401.981	16.11
402.359	17.11
402.736	14.11
403.114	45.11
403.491	24.11
403.868	20.11
404.246	57.11
404.623	29.11
405	12.11
405.377	8.11
405.755	18.11
406.132	11.11
406.509	6.11
406.886	24.11
407.263	23.11
407.64	8.11
408.017	20.11
408.393	17.11
408.77	17.11
409.147	13.11
409.524	12.11
409.9	15.11
410.277	17.11
410.653	15.11
411.03	13.11
411.406	8.11
411.783	43.11
412.159	22.11
412.536	20.11
412.912	8.11
413.288	28.11
413.664	11.11
414.04	6.11
414.417	19.11
414.793	16.11
415.169	17.11
415.545	32.11
415.921	19.11
416.297	30.11
416.672	7.11
417.048	13.11
417.424	11.11
417.8	42.11
418.175	13.11
418.551	9.11
418.927	12.11
419.302	81.11
419.678	25.11
420.053	9.11
420.429	19.11
420.804	16.11
421.179	9.11
421.554	12.11
421.93	16.11
422.305	66.11
422.68	19.11
423.055	13.11
423.43	13.11
423.805	10.11
424.18	4.11
424.555	14.11
424.93	17.11
425.305	9.11
425.68	18.11
426.054	16.11
426.429	14.11
426.804	18.11
427.178	21.11
427.553	7.11
427.927	64.11
428.302	14.11
428.676	16.11
429.051	17.11
429.425	6.11
429.799	21.11
430.174	13.11
430.548	9.11
430.922	29.11
431.296	12.11
431.67	18.11
432.044	25.11
432.418	12.11
432.792	12.11
433.166	7.11
433.54	19.11
433.914	30.11
434.287	15.11
434.661	10.11
435.035	14.11
435.408	13.11
435.782	20.11
436.156	17.11
436.529	55.11
436.903	8.11
437.276	12.11
437.649	31.11
438.023	55.11
438.396	13.11
438.769	18.11
439.142	16.11
439.515	33.11
439.889	22.11
440.262	22.11
440.635	27.11
441.008	22.11
441.38	20.11
441.753	20.11
442.126	17.11
442.499	11.11
442.872	79.11
443.244	67.11
443.617	19.11
443.99	28.11
444.362	23.11
444.735	14.11
445.107	18.11
445.48	49.11
445.852	7.11
446.224	21.11
446.597	20.11
446.969	24.11
447.341	31.11
447.713	30.11
448.085	12.11
448.457	27.11
448.829	23.11
449.201	29.11
449.573	24.11
449.945	29.11
450.317	16.11
450.689	25.11
451.061	25.11
451.432	18.11
451.804	27.11
452.176	37.11
452.547	19.11
452.919	25.11
453.29	30.11
453.662	19.11
454.033	18.11
454.404	34.11
454.776	26.11
455.147	16.11
455.518	22.11
455.889	26.11
456.26	23.11
456.631	28.11
457.002	21.11
457.373	28.11
457.744	38.11
458.115	24.11
458.486	26.11
458.857	18.11
459.228	24.11
459.598	18.11
459.969	17.11
460.34	28.11
460.71	20.11
461.081	17.11
461.451	31.11
461.822	26.11
462.192	17.11
462.563	12.11
462.933	16.11
463.303	20.11
463.673	30.11
464.044	24.11
464.414	26.11
464.784	26.11
465.154	20.11
465.524	16.11
465.894	26.11
466.264	19.11
466.634	23.11
467.003	19.11
467.373	20.11
467.743	37.11
468.113	30.11
468.482	23.11
468.852	24.11
469.221	24.11
469.591	19.11
469.96	29.11
470.33	17.11
470.699	67.11
471.068	19.11
471.438	25.11
471.807	26.11
472.176	32.11
472.545	40.11
472.914	11.11
473.283	30.11
473.652	20.11
474.021	42.11
474.39	20.11
474.759	23.11
475.128	16.11
475.497	9.11
475.865	12.11
476.234	22.11
476.603	13.11
476.971	17.11
477.34	19.11
477.708	30.11
478.077	16.11
478.445	23.11
478.814	18.11
479.182	27.11
479.55	21.11
479.919	19.11
480.287	21.11
480.655	41.11
481.023	15.11
481.391	21.11
481.759	17.11
482.127	19.11
482.495	14.11
482.863	20.11
483.231	12.11
483.598	21.11
483.966	24.11
484.334	22.11
484.701	29.11
485.069	25.11
485.437	41.11
485.804	23.11
486.172	24.11
486.539	21.11
486.906	13.11
487.274	31.11
487.641	25.11
488.008	32.11
488.375	43.11
488.743	22.11
489.11	22.11
489.477	11.11
489.844	22.11
490.211	21.11
490.578	20.11
490.945	36.11
491.311	24.11
491.678	22.11
492.045	40.11
492.412	16.11
492.778	24.11
493.145	37.11
493.511	24.11
493.878	30.11
494.244	23.11
494.611	26.11
494.977	20.11
495.344	16.11
495.71	70.11
496.076	12.11
496.442	33.11
496.808	15.11
497.175	27.11
497.541	17.11
497.907	26.11
498.273	44.11
498.638	53.11
499.004	24.11
499.37	30.11
499.736	63.11
500.102	20.11
500.467	43.11
500.833	26.11
501.199	34.11
501.564	25.11
501.93	31.11
502.295	39.11
502.661	32.11
503.026	33.11
503.391	24.11
503.757	37.11
504.122	20.11
504.487	34.11
504.852	42.11
505.217	37.11
505.582	31.11
505.947	29.11
506.312	39.11
506.677	30.11
507.042	33.11
507.407	49.11
507.772	57.11
508.136	53.11
508.501	49.11
508.866	32.11
509.23	61.11
509.595	35.11
509.959	41.11
510.324	32.11
510.688	46.11
511.053	44.11
511.417	91.11
511.781	36.11
512.146	33.11
512.51	55.11
512.874	79.11
513.238	41.11
513.602	37.11
513.966	41.11
514.33	45.11
514.694	33.11
515.058	38.11
515.422	61.11
515.785	63.11
516.149	46.11
516.513	57.11
516.876	41.11
517.24	37.11
517.604	36.11
517.967	47.11
518.331	40.11
518.694	45.11
519.057	47.11
519.421	43.11
519.784	53.11
520.147	57.11
520.51	67.11
520.873	42.11
521.237	53.11
521.6	56.11
521.963	38.11
522.326	52.11
522.688	38.11
523.051	50.11
523.414	51.11
523.777	116.11
524.14	50.11
524.502	55.11
524.865	52.11
525.228	61.11
525.59	59.11
525.953	56.11
526.315	53.11
526.677	55.11
527.04	87.11
527.402	53.11
527.764	51.11
528.127	48.11
528.489	65.11
528.851	52.11
529.213	50.11
529.575	55.11
529.937	73.11
530.299	45.11
530.661	55.11
531.023	58.11
531.384	51.11
531.746	52.11
532.108	55.11
532.47	61.11
532.831	58.11
533.193	50.11
533.554	65.11
533.916	52.11
534.277	64.11
534.639	60.11
535	52.11
535.361	65.11
535.723	69.11
536.084	67.11
536.445	88.11
536.806	127.11
537.167	91.11
537.528	64.11
537.889	77.11
538.25	67.11
538.611	63.11
538.972	66.11
539.333	61.11
539.693	85.11
540.054	111.11
540.415	59.11
540.775	55.11
541.136	68.11
541.496	56.11
541.857	76.11
542.217	64.11
542.578	68.11
542.938	98.11
543.298	71.11
543.658	81.11
544.019	74.11
544.379	67.11
544.739	77.11
545.099	62.11
545.459	80.11
545.819	76.11
546.179	64.11
546.539	97.11
546.899	84.11
547.258	92.11
547.618	73.11
547.978	90.11
548.337	89.11
548.697	75.11
549.056	91.11
549.416	84.11
549.775	79.11
550.135	87.11
550.494	75.11
550.854	99.11
551.213	85.11
551.572	84.11
551.931	88.11
552.29	83.11
552.649	89.11
553.008	83.11
553.367	121.11
553.726	110.11
554.085	78.11
554.444	182.11
554.803	69.11
555.162	91.11
555.52	77.11
555.879	100.11
556.238	83.11
556.596	88.11
556.955	90.11
557.313	100.11
557.672	82.11
558.03	88.11
558.388	84.11
558.747	102.11
559.105	86.11
559.463	91.11
559.821	76.11
560.179	97.11
560.537	88.11
560.896	91.11
561.253	80.11
561.611	86.11
561.969	91.11
562.327	90.11
562.685	97.11
563.043	89.11
563.4	86.11
563.758	91.11
564.116	102.11
564.473	92.11
564.831	85.11
565.188	99.11
565.546	128.11
565.903	111.11
566.26	93.11
566.617	101.11
566.975	111.11
567.332	100.11
567.689	89.11
568.046	99.11
568.403	109.11
568.76	98.11
569.117	98.11
569.474	100.11
569.831	96.11
570.188	111.11
570.544	101.11
570.901	98.11
571.258	133.11
571.614	90.11
571.971	107.11
572.328	97.11
572.684	103.11
573.04	114.11
573.397	94.11
573.753	115.11
574.109	111.11
574.466	115.11
574.822	102.11
575.178	110.11
575.534	109.11
575.89	116.11
576.246	112.11
576.602	113.11
576.958	112.11
577.314	114.11
577.67	98.11
578.026	106.11
578.381	111.11
578.737	108.11
579.093	113.11
579.448	116.11
579.804	138.11
580.159	112.11
580.515	99.11
580.87	113.11
581.226	100.11
581.581	127.11
581.936	118.11
582.291	106.11
582.647	108.11
583.002	128.11
583.357	110.11
583.712	115.11
584.067	109.11
584.422	115.11
584.777	109.11
585.131	111.11
585.486	107.11
585.841	105.11
586.196	135.11
586.55	104.11
586.905	109.11
587.26	104.11
587.614	103.11
587.969	137.11
588.323	110.11
588.677	120.11
589.032	110.11
589.386	107.11
589.74	139.11
590.094	128.11
590.449	130.11
590.803	143.11
591.157	105.11
591.511	136.11
591.865	116.11
592.219	133.11
592.573	102.11
592.926	98.11
593.28	106.11
593.634	132.11
593.988	115.11
594.341	96.11
594.695	118.11
595.048	93.11
595.402	103.11
595.755	101.11
596.109	118.11
596.462	114.11
596.815	108.11
597.169	127.11
597.522	107.11
597.875	154.11
598.228	116.11
598.581	104.11
598.934	140.11
599.287	90.11
599.64	118.11
599.993	101.11
600.346	99.11
600.698	94.11
601.051	103.11
601.404	103.11
601.757	103.11
602.109	111.11
602.462	110.11
602.814	100.11
603.167	95.11
603.519	107.11
603.871	110.11
604.224	101.11
604.576	94.11
604.928	121.11
605.28	102.11
605.633	97.11
605.985	100.11
606.337	100.11
606.689	92.11
607.041	124.11
607.392	92.11
607.744	102.11
608.096	96.11
608.448	89.11
608.8	92.11
609.151	92.11
609.503	94.11
609.854	92.11
610.206	123.11
610.557	103.11
610.909	89.11
611.26	99.11
611.612	89.11
611.963	80.11
612.314	103.11
612.665	96.11
613.016	100.11
613.367	89.11
613.719	101.11
614.07	88.11
614.42	85.11
614.771	82.11
615.122	97.11
615.473	87.11
615.824	84.11
616.174	99.11
616.525	81.11
616.876	78.11
617.226	82.11
617.577	76.11
617.927	76.11
618.278	77.11
618.628	142.11
618.979	87.11
619.329	81.11
619.679	96.11
620.029	82.11
620.379	80.11
620.729	91.11
621.08	79.11
621.43	98.11
621.779	109.11
622.129	84.11
622.479	81.11
622.829	76.11
623.179	77.11
623.529	69.11
623.878	79.11
624.228	66.11
624.577	67.11
624.927	60.11
625.276	68.11
625.626	83.11
625.975	89.11
626.325	71.11
626.674	113.11
627.023	62.11
627.372	70.11
627.722	102.11
628.071	94.11
628.42	79.11
628.769	114.11
629.118	71.11
629.467	72.11
629.815	79.11
630.164	66.11
630.513	74.11
630.862	108.11
631.21	66.11
631.559	63.11
631.908	64.11
632.256	62.11
632.605	52.11
632.953	65.11
633.302	57.11
633.65	78.11
633.998	131.11
634.346	81.11
634.695	53.11
635.043	54.11
635.391	86.11
635.739	56.11
636.087	60.11
636.435	69.11
636.783	64.11
637.131	52.11
637.479	70.11
637.826	55.11
638.174	55.11
638.522	56.11
638.869	99.11
639.217	49.11
639.564	57.11
639.912	46.11
640.259	52.11
640.607	57.11
640.954	66.11
641.301	59.11
641.649	52.11
641.996	58.11
642.343	65.11
642.69	61.11
643.037	59.11
643.384	80.11
643.731	49.11
644.078	80.11
644.425	50.11
644.772	48.11
645.119	48.11
645.465	44.11
645.812	52.11
646.159	59.11
646.505	56.11
646.852	78.11
647.198	43.11
647.545	50.11
647.891	67.11
648.237	58.11
648.584	54.11
648.93	44.11
649.276	51.11
649.622	54.11
649.969	72.11
650.315	52.11
650.661	58.11
651.007	58.11
651.352	60.11
651.698	37.11
652.044	43.11
652.39	59.11
652.736	43.11
653.081	42.11
653.427	40.11
653.773	55.11
654.118	47.11
654.464	41.11
654.809	43.11
655.154	37.11
655.5	47.11
655.845	35.11
656.19	37.11
656.536	29.11
656.881	47.11
657.226	29.11
657.571	90.11
657.916	38.11
658.261	32.11
658.606	39.11
658.951	29.11
659.295	27.11
659.64	29.11
659.985	35.11
660.33	34.11
660.674	38.11
661.019	42.11
661.363	39.11
661.708	40.11
662.052	25.11
662.397	33.11
662.741	38.11
663.085	31.11
663.429	39.11
663.774	77.11
664.118	19.11
664.462	25.11
664.806	23.11
665.15	47.11
665.494	24.11
665.838	28.11
666.182	33.11
666.526	41.11
666.869	29.11
667.213	26.11
667.557	36.11
667.9	38.11
668.244	30.11
668.587	42.11
668.931	28.11
669.274	28.11
669.618	22.11
669.961	33.11
670.304	18.11
670.648	29.11
670.991	28.11
671.334	16.11
671.677	26.11
672.02	19.11
672.363	24.11
672.706	22.11
673.049	28.11
673.392	21.11
673.735	21.11
674.077	25.11
674.42	22.11
674.763	19.11
675.105	25.11
675.448	33.11
675.79	16.11
676.133	24.11
676.475	16.11
676.818	21.11
677.16	12.11
677.502	36.11
677.844	48.11
678.187	15.11
678.529	53.11
678.871	34.11
679.213	26.11
679.555	31.11
679.897	24.11
680.239	21.11
680.58	23.11
680.922	38.11
681.264	35.11
681.606	25.11
681.947	29.11
682.289	25.11
682.631	59.11
682.972	19.11
683.313	34.11
683.655	30.11
683.996	21.11
684.338	21.11
684.679	21.11
685.02	24.11
685.361	25.11
685.702	26.11
686.043	29.11
686.384	22.11
686.725	22.11
687.066	37.11
687.407	21.11
687.748	24.11
688.089	36.11
688.43	21.11
688.77	65.11
689.111	29.11
689.451	21.11
689.792	30.11
690.132	23.11
690.473	24.11
690.813	22.11
691.154	29.11
691.494	21.11
691.834	28.11
692.174	18.11
692.515	26.11
692.855	24.11
693.195	29.11
693.535	32.11
693.875	21.11
694.215	22.11
694.554	36.11
694.894	23.11
695.234	22.11
695.574	25.11
695.913	32.11
696.253	22.11
696.593	32.11
696.932	32.11
697.272	27.11
697.611	20.11
697.95	35.11
698.29	19.11
698.629	26.11
698.968	15.11
699.307	15.11
699.647	25.11
699.986	40.11
700.325	26.11
700.664	17.11
701.003	21.11
701.341	19.11
701.68	15.11
702.019	13.11
702.358	18.11
702.697	23.11
703.035	31.11
703.374	19.11
703.712	31.11
704.051	15.11
704.389	28.11
704.728	21.11
705.066	23.11
705.404	24.11
705.743	24.11
706.081	25.11
706.419	13.11
706.757	23.11
707.095	32.11
707.433	29.11
707.771	19.11
708.109	10.11
708.447	30.11
708.785	23.11
709.123	33.11
709.46	25.11
709.798	16.11
710.136	29.11
710.473	19.11
710.811	28.11
711.148	23.11
711.486	21.11
711.823	18.11
712.16	17.11
712.498	16.11
712.835	32.11
713.172	21.11
713.509	28.11
713.846	82.11
714.183	33.11
714.52	21.11
714.857	19.11
715.194	21.11
715.531	24.11
715.868	37.11
716.205	18.11
716.541	26.11
716.878	35.11
717.215	22.11
717.551	25.11
717.888	19.11
718.224	72.11
718.561	26.11
718.897	17.11
719.233	17.11
719.57	17.11
719.906	11.11
720.242	15.11
720.578	13.11
720.914	17.11
721.25	17.11
721.586	10.11
721.922	14.11
722.258	28.11
722.594	12.11
722.929	22.11
723.265	18.11
723.601	19.11
723.937	35.11
724.272	14.11
724.608	23.11
724.943	15.11
725.279	8.11
725.614	12.11
725.949	18.11
726.285	18.11
726.62	40.11
726.955	11.11
727.29	15.11
727.625	13.11
727.96	23.11
728.295	37.11
728.63	23.11
728.965	7.11
729.3	18.11
729.635	62.11
729.97	21.11
730.304	12.11
730.639	18.11
730.974	17.11
731.308	33.11
731.643	8.11
731.977	32.11
732.311	27.11
732.646	14.11
732.98	16.11
733.314	8.11
733.649	22.11
733.983	23.11
734.317	45.11
734.651	17.11
734.985	12.11
735.319	15.11
735.653	24.11
735.987	24.11
736.321	35.11
736.654	10.11
736.988	28.11
737.322	38.11
737.655	28.11
737.989	22.11
738.322	20.11
738.656	11.11
738.989	19.11
739.323	17.11
739.656	18.11
739.989	31.11
740.323	11.11
740.656	11.11
740.989	10.11
741.322	21.11
741.655	28.11
741.988	36.11
742.321	28.11
742.654	17.11
742.987	13.11
743.319	21.11
743.652	16.11
743.985	25.11
744.317	13.11
744.65	13.11
744.983	20.11
745.315	9.11
745.648	14.11
745.98	14.11
746.312	16.11
746.645	14.11
746.977	34.11
747.309	20.11
747.641	21.11
747.973	21.11
748.305	4.11
748.637	7.11
748.969	10.11
749.301	22.11
749.633	13.11
749.965	5.11
750.297	18.11
750.628	22.11
750.96	22.11
751.292	37.11
751.623	16.11
751.955	15.11
752.286	22.11
752.618	12.11
752.949	10.11
753.28	25.11
753.611	4.11
753.943	14.11
754.274	18.11
754.605	16.11
754.936	19.11
755.267	11.11
755.598	23.11
755.929	11.11
756.26	12.11
756.591	141.11
756.921	15.11
757.252	21.11
757.583	15.11
757.913	15.11
758.244	13.11
758.574	24.11
758.905	9.11
759.235	24.11
759.566	5.11
759.896	33.11
760.226	21.11
760.557	-0.89
760.887	4.11
761.217	15.11
761.547	25.11
761.877	20.11
762.207	26.11
762.537	16.11
762.867	12.11
763.197	44.11
763.526	9.11
763.856	25.11
764.186	28.11
764.515	5.11
764.845	7.11
765.175	18.11
765.504	13.11
765.833	5.11
766.163	15.11
766.492	13.11
766.821	16.11
767.151	15.11
767.48	11.11
767.809	21.11
768.138	19.11
768.467	15.11
768.796	15.11
769.125	13.11
769.454	15.11
769.783	24.11
770.112	12.11
770.44	21.11
770.769	15.11
771.098	23.11
771.426	19.11
771.755	8.11
772.083	14.11
772.412	20.11
772.74	9.11
773.069	76.11
773.397	24.11
773.725	3.11
774.053	47.11
774.381	23.11
774.71	31.11
775.038	8.11
775.366	9.11
775.693	11.11
776.021	19.11
776.349	13.11
776.677	14.11
777.005	15.11
777.332	19.11
777.66	8.11
777.988	16.11
778.315	28.11
778.643	14.11
778.97	9.11
779.298	10.11
779.625	10.11
779.952	15.11
780.28	20.11
780.607	14.11
780.934	23.11
781.261	18.11
781.588	11.11
781.915	19.11
782.242	22.11
782.569	38.11
782.896	23.11
783.223	19.11
783.549	24.11
783.876	17.11
784.203	8.11
784.529	32.11
784.856	21.11
785.182	25.11
785.509	29.11
785.835	17.11
786.162	15.11
786.488	14.11
786.814	6.11
787.14	21.11
787.466	20.11
787.793	24.11
788.119	10.11
788.445	12.11
788.771	23.11
789.097	10.11
789.422	21.11
789.748	8.11
790.074	11.11
790.4	29.11
790.725	18.11
791.051	80.11
791.376	15.11
791.702	12.11
792.027	18.11
792.353	10.11
792.678	19.11
793.004	25.11
793.329	21.11
793.654	6.11
793.979	13.11
794.304	10.11
794.629	21.11
794.954	7.11
795.279	18.11
795.604	29.11
795.929	14.11
796.254	9.11
796.579	9.11
796.903	63.11
797.228	9.11
797.553	36.11
797.877	8.11
798.202	25.11
798.526	13.11
798.851	10.11
799.175	22.11
799.499	21.11
799.823	14.11
800.148	6.11
800.472	9.11
800.796	11.11
801.12	19.11
801.444	20.11
801.768	11.11
802.092	19.11
802.416	13.11
802.74	27.11
803.063	17.11
803.387	22.11
803.711	94.11
804.034	24.11
804.358	19.11
804.681	25.11
805.005	19.11
805.328	16.11
805.652	4.11
805.975	12.11
806.298	22.11
806.621	18.11
806.944	15.11
807.268	33.11
807.591	27.11
807.914	14.11
808.237	25.11
808.56	21.11
808.882	22.11
809.205	25.11
809.528	10.11
809.851	8.11
810.173	12.11
810.496	86.11
810.818	54.11
811.141	17.11
811.463	27.11
811.786	67.11
812.108	9.11
812.43	24.11
812.753	15.11
813.075	29.11
813.397	24.11
813.719	18.11
814.041	14.11
814.363	10.11
814.685	15.11
815.007	9.11
815.329	12.11
815.651	22.11
815.972	6.11
816.294	25.11
816.616	9.11
816.937	13.11
817.259	16.11
817.58	25.11
817.902	4.11
818.223	18.11
818.545	16.11
818.866	27.11
819.187	14.11
819.508	32.11
819.83	23.11
820.151	33.11
820.472	11.11
820.793	21.11
821.114	16.11
821.435	13.11
821.755	7.11
822.076	13.11
822.397	12.11
822.718	56.11
823.038	20.11
823.359	34.11
823.679	17.11
824	35.11
824.32	5.11
824.641	21.11
824.961	24.11
825.281	22.11
825.602	15.11
825.922	6.11
826.242	18.11
826.562	27.11
826.882	17.11
827.202	27.11
827.522	49.11
827.842	19.11
828.162	3.11
828.481	9.11
828.801	19.11
829.121	32.11
829.441	29.11
829.76	17.11
830.08	11.11
830.399	5.11
830.719	20.11
831.038	8.11
831.357	3.11
831.677	18.11
831.996	28.11
832.315	19.11
832.634	16.11
832.953	8.11
833.272	14.11
833.591	10.11
833.91	6.11
834.229	8.11
834.548	19.11
834.867	19.11
835.185	14.11
835.504	38.11
835.823	77.11
836.141	17.11
836.46	16.11
836.778	21.11
837.097	7.11
837.415	3.11
837.733	14.11
838.051	13.11
838.37	24.11
838.688	18.11
839.006	11.11
839.324	7.11
839.642	23.11
839.96	19.11
840.278	26.11
840.596	23.11
840.914	21.11
841.231	27.11
841.549	26.11
841.867	5.11
842.184	18.11
842.502	34.11
842.819	14.11
843.137	26.11
843.454	15.11
843.772	19.11
844.089	25.11
844.406	66.11
844.723	18.11
845.041	9.11
845.358	13.11
845.675	14.11
845.992	5.11
846.309	11.11
846.626	15.11
846.942	33.11
847.259	9.11
847.576	11.11
847.893	16.11
848.209	16.11
848.526	13.11
848.842	50.11
849.159	14.11
849.475	17.11
849.792	11.11
850.108	18.11
850.424	15.11
850.741	34.11
851.057	18.11
851.373	17.11
851.689	23.11
852.005	20.11
852.321	13.11
852.637	19.11
852.953	9.11
853.269	17.11
853.584	3.11
853.9	7.11
854.216	15.11
854.531	7.11
854.847	12.11
855.163	16.11
855.478	17.11
855.793	9.11
856.109	11.11
856.424	12.11
856.739	5.11
857.055	22.11
857.37	17.11
857.685	22.11
858	21.11
858.315	40.11
858.63	12.11
858.945	19.11
859.26	26.11
859.574	29.11
859.889	16.11
860.204	7.11
860.519	24.11
860.833	19.11
861.148	10.11
861.462	22.11
861.777	2.11
862.091	40.11
862.405	8.11
862.72	21.11
863.034	25.11
863.348	33.11
863.662	5.11
863.976	32.11
864.291	60.11
864.605	18.11
864.918	16.11
865.232	11.11
865.546	20.11
865.86	40.11
866.174	12.11
866.487	19.11
866.801	16.11
867.115	16.11
867.428	13.11
867.742	20.11
868.055	12.11
868.368	10.11
868.682	13.11
868.995	33.11
869.308	22.11
869.621	21.11
869.935	10.11
870.248	27.11
870.561	20.11
870.874	21.11
871.187	26.11
871.499	29.11
871.812	10.11
872.125	19.11
872.438	40.11
872.75	6.11
873.063	15.11
873.376	9.11
873.688	14.11
874.001	15.11
874.313	13.11
874.625	72.11
874.938	11.11
875.25	5.11
875.562	21.11
875.874	18.11
876.186	4.11
876.498	38.11
876.81	29.11
877.122	37.11
877.434	34.11
877.746	25.11
878.058	25.11
878.37	19.11
878.681	12.11
878.993	3.11
879.304	22.11
879.616	7.11
879.927	8.11
880.239	37.11
880.55	20.11
880.862	6.11
881.173	16.11
881.484	13.11
881.795	17.11
882.106	64.11
882.417	23.11
882.729	3.11
883.039	28.11
883.35	20.11
883.661	22.11
883.972	16.11
884.283	15.11
884.594	29.11
884.904	32.11
885.215	76.11
885.525	28.11
885.836	4.11
886.146	34.11
886.457	28.11
886.767	28.11
887.077	8.11
887.388	16.11
887.698	10.11
888.008	14.11
888.318	4.11
888.628	21.11
888.938	39.11
889.248	26.11
889.558	14.11
889.868	5.11
890.178	6.11
890.487	11.11
890.797	56.11
891.107	29.11
891.416	14.11
891.726	18.11
892.035	18.11
892.345	13.11
892.654	10.11
892.963	39.11
893.273	17.11
893.582	22.11
893.891	17.11
894.2	20.11
894.509	14.11
894.818	4.11
895.127	30.11
895.436	18.11
895.745	8.11
896.054	10.11
896.362	23.11
896.671	13.11
896.98	35.11
897.288	12.11
897.597	18.11
897.905	8.11
898.214	21.11
898.522	23.11
898.831	4.11
899.139	13.11
899.447	9.11
899.755	22.11
900.063	15.11
900.372	133.11
900.68	7.11
900.988	10.11
901.296	25.11
901.603	23.11
901.911	4.11
902.219	9.11
902.527	16.11
902.834	16.11
903.142	16.11
903.45	17.11
903.757	6.11
904.065	19.11
904.372	33.11
904.679	15.11
904.987	8.11
905.294	20.11
905.601	24.11
905.908	15.11
906.215	21.11
906.522	78.11
906.829	24.11
907.136	22.11
907.443	12.11
907.75	16.11
908.057	67.11
908.364	27.11
908.67	33.11
908.977	14.11
909.283	8.11
909.59	3.11
909.896	20.11
910.203	18.11
910.509	10.11
910.816	20.11
911.122	17.11
911.428	21.11
911.734	29.11
912.04	25.11
912.346	23.11
912.652	27.11
912.958	28.11
913.264	14.11
913.57	8.11
913.876	11.11
914.182	5.11
914.487	20.11
914.793	12.11
915.099	6.11
915.404	24.11
915.71	21.11
916.015	34.11
916.321	10.11
916.626	21.11
916.931	10.11
917.236	11.11
917.542	7.11
917.847	15.11
918.152	9.11
918.457	11.11
918.762	11.11
919.067	27.11
919.372	9.11
919.676	11.11
919.981	20.11
920.286	17.11
920.59	15.11
920.895	14.11
921.2	61.11
921.504	31.11
921.809	75.11
922.113	27.11
922.417	5.11
922.722	25.11
923.026	11.11
923.33	112.11
923.634	14.11
923.938	14.11
924.242	12.11
924.546	3.11
924.85	13.11
925.154	10.11
925.458	19.11
925.762	5.11
926.065	13.11
926.369	10.11
926.673	9.11
926.976	70.11
927.28	21.11
927.583	8.11
927.887	18.11
928.19	63.11
928.493	16.11
928.797	18.11
929.1	16.11
929.403	11.11
929.706	3.11
930.009	11.11
930.312	46.11
930.615	21.11
930.918	35.11
931.221	33.11
931.524	15.11
931.826	6.11
932.129	12.11
932.432	3.11
932.734	50.11
933.037	15.11
933.339	27.11
933.642	24.11
933.944	18.11
934.246	14.11
934.548	21.11
934.851	13.11
935.153	10.11
935.455	13.11
935.757	13.11
936.059	8.11
936.361	24.11
936.663	40.11
936.965	7.11
937.266	21.11
937.568	27.11
937.87	6.11
938.172	4.11
938.473	19.11
938.775	15.11
939.076	28.11
939.378	19.11
939.679	17.11
939.98	27.11
940.281	21.11
940.583	10.11
940.884	17.11
941.185	40.11
941.486	28.11
941.787	30.11
942.088	17.11
942.389	23.11
942.69	21.11
942.991	11.11
943.291	17.11
943.592	41.11
943.893	21.11
944.193	29.11
944.494	18.11
944.794	12.11
945.095	37.11
945.395	16.11
945.695	13.11
945.996	37.11
946.296	9.11
946.596	23.11
946.896	14.11
947.196	24.11
947.496	26.11
947.796	23.11
948.096	14.11
948.396	17.11
948.696	16.11
948.995	12.11
949.295	12.11
949.595	25.11
949.894	27.11
950.194	55.11
950.493	34.11
950.793	41.11
951.092	26.11
951.391	15.11
951.691	20.11
951.99	18.11
952.289	17.11
952.588	17.11
952.887	10.11
953.186	10.11
953.485	19.11
953.784	7.11
954.083	19.11
954.382	9.11
954.681	53.11
954.979	16.11
955.278	15.11
955.576	24.11
955.875	13.11
956.174	27.11
956.472	5.11
956.77	11.11
957.069	10.11
957.367	15.11
957.665	11.11
957.963	30.11
958.261	4.11
958.559	19.11
958.857	66.11
959.155	21.11
959.453	15.11
959.751	20.11
960.049	55.11
960.347	15.11
960.644	19.11
960.942	13.11
961.24	19.11
961.537	25.11
961.835	9.11
962.132	17.11
962.429	64.11
962.727	27.11
963.024	17.11
963.321	17.11
963.618	59.11
963.916	33.11
964.213	70.11
964.51	15.11
964.807	8.11
965.104	13.11
965.4	18.11
965.697	22.11
965.994	18.11
966.291	66.11
966.587	46.11
966.884	12.11
967.18	17.11
967.477	22.11
967.773	31.11
968.07	24.11
968.366	22.11
968.662	17.11
968.958	14.11
969.255	13.11
969.551	17.11
969.847	9.11
970.143	16.11
970.439	29.11
970.735	13.11
971.03	15.11
971.326	19.11
971.622	17.11
971.918	4.11
972.213	3.11
972.509	26.11
972.804	14.11
973.1	4.11
973.395	24.11
973.691	5.11
973.986	15.11
974.281	51.11
974.576	17.11
974.872	18.11
975.167	2.11
975.462	16.11
975.757	25.11
976.052	12.11
976.347	24.11
976.641	24.11
976.936	21.11
977.231	21.11
977.526	24.11
977.82	13.11
978.115	18.11
978.409	16.11
978.704	15.11
978.998	30.11
979.293	21.11
979.587	27.11
979.881	20.11
980.175	30.11
980.469	14.11
980.764	13.11
981.058	14.11
981.352	15.11
981.646	21.11
981.939	37.11
982.233	23.11
982.527	57.11
982.821	66.11
983.114	28.11
983.408	13.11
983.702	27.11
983.995	21.11
984.289	18.11
984.582	9.11
984.875	8.11
985.169	65.11
985.462	9.11
985.755	25.11
986.048	22.11
986.341	27.11
986.634	22.11
986.927	14.11
987.22	19.11
987.513	23.11
987.806	11.11
988.099	35.11
988.391	15.11
988.684	28.11
988.977	8.11
989.269	14.11
989.562	23.11
989.854	15.11
990.147	22.11
990.439	30.11
990.731	14.11
991.023	16.11
991.316	27.11
991.608	22.11
991.9	25.11
992.192	26.11
992.484	12.11
992.776	29.11
993.068	13.11
993.359	28.11
993.651	24.11
993.943	19.11
994.235	14.11
994.526	17.11
994.818	15.11
995.109	18.11
995.401	27.11
995.692	18.11
995.983	31.11
996.275	13.11
996.566	17.11
996.857	10.11
997.148	16.11
997.439	20.11
997.73	20.11
998.021	43.11
998.312	40.11
998.603	58.11
998.894	26.11
999.184	18.11
999.475	25.11
999.766	23.11
1000.056	6.11
1000.347	22.11
1000.637	13.11
1000.928	34.11
1001.218	23.11
1001.508	16.11
1001.799	24.11
1002.089	23.11
1002.379	27.11
1002.669	24.11
1002.959	13.11
1003.249	25.11
1003.539	20.11
1003.829	23.11
1004.119	17.11
1004.409	9.11
1004.698	8.11
1004.988	15.11
1005.278	59.11
1005.567	11.11
1005.857	20.11
1006.146	24.11
1006.436	10.11
1006.725	13.11
1007.014	18.11
1007.303	13.11
1007.593	8.11
1007.882	39.11
1008.171	26.11
1008.46	27.11
1008.749	28.11
1009.038	21.11
1009.327	4.11
1009.615	18.11
1009.904	18.11
1010.193	12.11
1010.482	13.11
1010.77	27.11
1011.059	17.11
1011.347	21.11
1011.636	21.11
1011.924	27.11
1012.212	17.11
1012.501	10.11
1012.789	20.11
1013.077	27.11
1013.365	12.11
1013.653	18.11
1013.941	22.11
1014.229	21.11
1014.517	10.11
1014.805	10.11
1015.093	16.11
1015.38	7.11
1015.668	13.11
1015.956	11.11
1016.243	13.11
1016.531	12.11
1016.818	22.11
1017.106	19.11
1017.393	22.11
1017.68	11.11
1017.968	20.11
1018.255	85.11
1018.542	17.11
1018.829	48.11
1019.116	29.11
1019.403	22.11
1019.69	13.11
1019.977	19.11
1020.264	20.11
1020.551	32.11
1020.837	16.11
1021.124	24.11
1021.411	33.11
1021.697	27.11
1021.984	7.11
1022.27	23.11
1022.557	16.11
1022.843	7.11
1023.129	15.11
1023.415	22.11
1023.702	19.11
1023.988	23.11
1024.274	21.11
1024.56	21.11
1024.846	11.11
1025.132	28.11
1025.418	17.11
1025.703	21.11
1025.989	55.11
1026.275	24.11
1026.56	24.11
1026.846	15.11
1027.132	13.11
1027.417	7.11
1027.703	29.11
1027.988	21.11
1028.273	38.11
1028.558	19.11
1028.844	26.11
